time,yo,
0,731,
0.005,724,
0.013,724,
0.02,730,
0.027,726,
0.034,725,
0.041,730,
0.05,725,
0.055,754,
0.063,787,
0.07,815,
0.077,827,
0.084,782,
0.091,748,
0.098,726,
0.105,721,
0.112,721,
0.12,725,
0.127,718,
0.134,729,
0.141,727,
0.148,717,
0.155,729,
0.162,734,
0.17,728,
0.177,735,
0.184,735,
0.191,729,
0.198,735,
0.205,733,
0.212,736,
0.22,742,
0.227,731,
0.234,735,
0.241,742,
0.248,733,
0.255,739,
0.262,745,
0.27,735,
0.277,745,
0.284,743,
0.291,742,
0.298,746,
0.305,744,
0.312,745,
0.32,753,
0.327,748,
0.334,747,
0.341,753,
0.348,744,
0.355,743,
0.362,745,
0.37,735,
0.377,739,
0.384,737,
0.391,727,
0.398,736,
0.405,732,
0.413,732,
0.42,737,
0.427,733,
0.434,733,
0.441,740,
0.448,734,
0.455,737,
0.462,742,
0.47,732,
0.477,741,
0.484,734,
0.491,739,
0.498,740,
0.505,735,
0.512,739,
0.52,737,
0.527,735,
0.534,740,
0.541,738,
0.548,736,
0.555,742,
0.562,736,
0.57,738,
0.577,739,
0.584,733,
0.591,738,
0.598,741,
0.605,733,
0.612,740,
0.62,741,
0.627,737,
0.634,746,
0.641,741,
0.648,739,
0.655,747,
0.662,741,
0.67,744,
0.677,742,
0.684,735,
0.691,736,
0.698,739,
0.705,728,
0.712,736,
0.72,735,
0.727,729,
0.734,740,
0.741,759,
0.748,793,
0.755,835,
0.762,825,
0.77,782,
0.777,753,
0.784,725,
0.791,725,
0.798,729,
0.805,723,
0.812,729,
0.82,724,
0.827,721,
0.834,733,
0.841,732,
0.848,726,
0.855,737,
0.862,735,
0.87,731,
0.877,739,
0.884,735,
0.891,735,
0.898,738,
0.905,731,
0.912,738,
0.92,743,
0.927,738,
0.934,742,
0.941,738,
0.948,738,
0.955,744,
0.962,743,
0.97,741,
0.977,753,
0.984,745,
0.991,747,
0.998,753,
1.005,743,
1.012,749,
1.02,752,
1.027,746,
1.034,748,
1.041,736,
1.048,741,
1.055,738,
1.062,734,
1.07,741,
1.077,735,
1.084,733,
1.091,739,
1.098,732,
1.105,732,
1.112,740,
1.12,731,
1.127,736,
1.134,737,
1.141,729,
1.148,734,
1.155,738,
1.162,733,
1.17,739,
1.177,737,
1.184,731,
1.191,741,
1.198,736,
1.205,738,
1.212,737,
1.22,735,
1.227,739,
1.234,741,
1.241,736,
1.248,735,
1.255,739,
1.262,729,
1.27,738,
1.277,738,
1.284,736,
1.291,746,
1.298,742,
1.305,734,
1.312,744,
1.32,738,
1.327,743,
1.334,747,
1.341,740,
1.348,739,
1.355,742,
1.362,731,
1.37,733,
1.377,740,
1.384,732,
1.391,731,
1.398,734,
1.405,741,
1.412,778,
1.42,807,
1.427,823,
1.434,803,
1.441,756,
1.448,725,
1.455,729,
1.462,725,
1.47,727,
1.477,725,
1.484,724,
1.491,730,
1.498,731,
1.505,727,
1.512,737,
1.52,734,
1.527,730,
1.534,738,
1.541,735,
1.548,733,
1.555,737,
1.562,735,
1.57,735,
1.577,737,
1.584,732,
1.591,741,
1.598,736,
1.605,743,
1.612,741,
1.62,741,
1.627,746,
1.634,748,
1.641,743,
1.648,749,
1.655,746,
1.662,745,
1.67,752,
1.677,743,
1.684,750,
1.691,752,
1.698,742,
1.705,739,
1.712,742,
1.72,734,
1.727,739,
1.734,734,
1.741,729,
1.748,740,
1.755,731,
1.762,729,
1.77,741,
1.777,733,
1.784,733,
1.791,740,
1.798,730,
1.805,736,
1.812,735,
1.82,730,
1.827,735,
1.834,736,
1.841,731,
1.848,736,
1.855,739,
1.862,735,
1.87,740,
1.877,733,
1.884,732,
1.891,742,
1.898,733,
1.905,732,
1.912,737,
1.92,730,
1.927,729,
1.934,737,
1.941,728,
1.948,733,
1.955,737,
1.962,735,
1.97,735,
1.977,735,
1.984,732,
1.991,742,
1.998,733,
2.005,730,
2.012,738,
2.02,727,
2.027,726,
2.034,726,
2.041,717,
2.048,726,
2.055,725,
2.062,723,
2.07,742,
2.077,773,
2.084,797,
2.091,817,
2.098,781,
2.105,739,
2.113,714,
2.12,716,
2.127,720,
2.134,711,
2.141,721,
2.148,724,
2.155,715,
2.162,721,
2.17,724,
2.177,718,
2.184,729,
2.191,726,
2.198,729,
2.205,732,
2.212,733,
2.22,729,
2.227,738,
2.234,730,
2.241,727,
2.248,740,
2.255,728,
2.263,737,
2.27,738,
2.277,733,
2.284,738,
2.291,741,
2.298,735,
2.305,748,
2.312,748,
2.32,742,
2.327,747,
2.334,743,
2.341,745,
2.348,751,
2.355,740,
2.362,741,
2.37,740,
2.377,731,
2.384,734,
2.391,735,
2.398,726,
2.405,735,
2.412,731,
2.42,728,
2.427,738,
2.434,732,
2.441,732,
2.448,738,
2.455,732,
2.462,734,
2.47,735,
2.477,728,
2.484,733,
2.491,735,
2.498,732,
2.505,740,
2.513,737,
2.52,730,
2.527,742,
2.534,735,
2.541,733,
2.548,737,
2.555,737,
2.562,738,
2.57,739,
2.577,732,
2.584,736,
2.591,740,
2.598,733,
2.605,732,
2.612,740,
2.62,736,
2.627,740,
2.634,741,
2.641,738,
2.648,742,
2.655,741,
2.662,741,
2.67,739,
2.677,742,
2.684,742,
2.691,731,
2.698,732,
2.705,737,
2.712,729,
2.72,733,
2.727,736,
2.734,729,
2.741,749,
2.748,779,
2.755,821,
2.762,831,
2.77,796,
2.777,758,
2.784,730,
2.791,725,
2.798,722,
2.805,728,
2.812,723,
2.82,727,
2.827,729,
2.834,725,
2.841,732,
2.848,732,
2.855,727,
2.862,736,
2.87,733,
2.877,728,
2.884,742,
2.891,737,
2.898,734,
2.905,741,
2.912,737,
2.92,737,
2.927,743,
2.934,735,
2.941,743,
2.948,740,
2.955,738,
2.962,745,
2.97,746,
2.977,739,
2.984,749,
2.991,748,
2.998,746,
3.005,752,
3.012,745,
3.02,747,
3.027,754,
3.034,745,
3.041,744,
3.048,749,
3.055,734,
3.062,738,
3.07,740,
3.077,733,
3.084,737,
3.091,734,
3.098,729,
3.105,741,
3.112,733,
3.12,734,
3.127,739,
3.134,731,
3.141,736,
3.148,742,
3.155,731,
3.162,733,
3.17,740,
3.177,731,
3.184,742,
3.191,738,
3.198,729,
3.205,735,
3.212,738,
3.22,740,
3.227,737,
3.234,737,
3.241,743,
3.248,734,
3.255,740,
3.262,744,
3.27,734,
3.277,740,
3.284,739,
3.291,736,
3.298,740,
3.305,742,
3.312,740,
3.32,745,
3.327,744,
3.334,744,
3.341,746,
3.348,742,
3.355,740,
3.362,748,
3.37,735,
3.377,745,
3.384,741,
3.391,736,
3.398,738,
3.405,739,
3.412,733,
3.42,733,
3.427,737,
3.434,751,
3.441,795,
3.448,825,
3.455,829,
3.462,792,
3.47,749,
3.477,728,
3.484,733,
3.491,719,
3.498,727,
3.505,731,
3.512,721,
3.52,730,
3.527,730,
3.534,729,
3.541,735,
3.548,731,
3.555,732,
3.562,740,
3.57,736,
3.577,736,
3.584,742,
3.591,732,
3.598,737,
3.605,736,
3.612,737,
3.62,738,
3.627,743,
3.634,736,
3.641,746,
3.648,743,
3.655,743,
3.662,748,
3.67,745,
3.677,743,
3.684,752,
3.691,746,
3.698,747,
3.705,755,
3.713,742,
3.72,748,
3.727,752,
3.734,743,
3.741,743,
3.748,739,
3.755,731,
3.762,740,
3.77,729,
3.777,739,
3.784,730,
3.791,735,
3.798,741,
3.805,732,
3.812,734,
3.82,741,
3.827,734,
3.834,737,
3.841,738,
3.848,731,
3.855,738,
3.862,738,
3.87,729,
3.877,743,
3.884,739,
3.891,733,
3.898,741,
3.905,732,
3.912,737,
3.92,742,
3.927,732,
3.934,735,
3.941,739,
3.948,731,
3.955,736,
3.962,742,
3.97,731,
3.977,738,
3.984,742,
3.991,737,
3.998,746,
4.005,740,
4.012,738,
4.02,748,
4.027,739,
4.034,741,
4.041,747,
4.048,737,
4.055,740,
4.062,740,
4.07,733,
4.077,738,
4.084,738,
4.091,733,
4.098,739,
4.105,734,
4.112,733,
4.12,747,
4.127,784,
4.134,812,
4.141,828,
4.148,782,
4.155,750,
4.162,731,
4.17,717,
4.177,730,
4.184,731,
4.191,724,
4.198,732,
4.205,731,
4.212,727,
4.22,736,
4.227,733,
4.234,728,
4.241,736,
4.248,731,
4.255,739,
4.262,740,
4.27,734,
4.277,738,
4.284,742,
4.291,734,
4.298,739,
4.305,744,
4.312,732,
4.32,739,
4.327,738,
4.334,752,
4.341,743,
4.348,743,
4.355,748,
4.362,744,
4.37,748,
4.377,749,
4.384,744,
4.391,750,
4.398,749,
4.405,742,
4.412,749,
4.42,742,
4.427,738,
4.434,738,
4.441,734,
4.449,729,
4.455,737,
4.462,733,
4.47,730,
4.477,739,
4.484,730,
4.491,735,
4.498,739,
4.505,733,
4.512,735,
4.52,738,
4.527,730,
4.534,735,
4.541,735,
4.548,733,
4.555,741,
4.562,733,
4.57,734,
4.577,743,
4.584,735,
4.591,733,
4.598,740,
4.605,736,
4.612,735,
4.62,741,
4.627,734,
4.634,737,
4.641,739,
4.648,734,
4.655,740,
4.662,737,
4.67,734,
4.677,744,
4.684,740,
4.691,739,
4.698,745,
4.705,738,
4.712,740,
4.72,741,
4.727,732,
4.734,736,
4.741,737,
4.748,728,
4.755,738,
4.762,732,
4.77,726,
4.777,735,
4.784,735,
4.791,749,
4.798,788,
4.805,813,
4.812,821,
4.82,789,
4.827,744,
4.834,720,
4.841,727,
4.848,722,
4.855,727,
4.862,726,
4.87,721,
4.877,728,
4.884,725,
4.891,737,
4.898,727,
4.905,731,
4.912,734,
4.92,730,
4.927,732,
4.934,738,
4.941,727,
4.948,739,
4.955,736,
4.962,729,
4.97,740,
4.977,737,
4.984,733,
4.991,741,
4.998,741,
5.005,736,
5.012,746,
5.02,737,
5.027,740,
5.034,745,
5.041,738,
5.048,747,
5.055,751,
5.062,736,
5.07,739,
5.077,744,
5.084,736,
5.091,739,
5.098,735,
5.105,731,
5.112,737,
5.12,733,
5.127,731,
5.134,735,
5.141,729,
5.148,734,
5.155,736,
5.162,734,
5.17,734,
5.177,737,
5.184,729,
5.191,735,
5.198,739,
5.205,730,
5.212,737,
5.22,741,
5.227,732,
5.234,736,
5.241,738,
5.248,735,
5.255,743,
5.262,737,
5.27,737,
5.277,740,
5.284,735,
5.291,737,
5.298,735,
5.305,736,
5.312,736,
5.32,737,
5.327,730,
5.334,738,
5.341,737,
5.348,728,
5.355,741,
5.362,739,
5.37,736,
5.377,745,
5.384,738,
5.391,740,
5.398,741,
5.405,737,
5.412,739,
5.42,731,
5.427,737,
5.434,733,
5.441,732,
5.448,737,
5.455,737,
5.462,750,
5.47,785,
5.477,815,
5.484,821,
5.491,793,
5.498,751,
5.505,726,
5.512,731,
5.52,726,
5.527,730,
5.534,733,
5.541,725,
5.548,731,
5.555,733,
5.562,728,
5.57,737,
5.577,733,
5.584,726,
5.591,736,
5.598,729,
5.605,739,
5.612,741,
5.62,733,
5.627,733,
5.634,739,
5.641,732,
5.648,738,
5.655,743,
5.662,735,
5.67,744,
5.677,741,
5.684,740,
5.691,745,
5.698,741,
5.705,745,
5.712,755,
5.72,744,
5.727,746,
5.734,750,
5.741,741,
5.748,747,
5.755,748,
5.762,739,
5.77,742,
5.777,741,
5.784,737,
5.791,741,
5.798,733,
5.805,732,
5.812,738,
5.82,733,
5.827,737,
5.834,742,
5.841,732,
5.848,734,
5.855,739,
5.862,733,
5.87,739,
5.877,738,
5.884,734,
5.891,742,
5.898,737,
5.905,733,
5.912,745,
5.92,734,
5.927,735,
5.934,740,
5.941,730,
5.948,737,
5.955,740,
5.962,730,
5.97,736,
5.977,732,
5.984,736,
5.991,737,
5.998,732,
6.005,744,
6.012,742,
6.02,735,
6.027,745,
6.034,742,
6.041,737,
6.048,748,
6.055,737,
6.062,742,
6.07,742,
6.077,735,
6.084,743,
6.091,738,
6.098,731,
6.105,741,
6.112,735,
6.12,728,
6.127,734,
6.134,738,
6.141,763,
6.148,803,
6.155,825,
6.162,812,
6.17,775,
6.177,735,
6.184,723,
6.191,725,
6.198,725,
6.205,726,
6.212,729,
6.22,723,
6.227,730,
6.234,728,
6.241,727,
6.248,736,
6.255,729,
6.262,733,
6.27,739,
6.277,730,
6.284,729,
6.291,739,
6.298,733,
6.305,737,
6.312,740,
6.32,733,
6.327,740,
6.334,741,
6.341,739,
6.348,740,
6.355,740,
6.362,742,
6.37,748,
6.377,741,
6.384,744,
6.391,751,
6.398,740,
6.405,746,
6.412,754,
6.42,743,
6.427,749,
6.434,748,
6.441,744,
6.448,740,
6.455,740,
6.462,738,
6.47,739,
6.477,737,
6.484,732,
6.491,740,
6.498,727,
6.505,731,
6.512,730,
6.52,739,
6.527,734,
6.534,728,
6.541,735,
6.548,739,
6.555,729,
6.562,739,
6.57,739,
6.577,734,
6.584,744,
6.591,735,
6.598,734,
6.605,743,
6.612,734,
6.62,732,
6.627,737,
6.634,730,
6.641,736,
6.648,736,
6.655,728,
6.662,733,
6.67,738,
6.677,735,
6.684,737,
6.691,737,
6.698,739,
6.705,742,
6.712,738,
6.72,742,
6.727,739,
6.734,738,
6.741,733,
6.748,743,
6.755,736,
6.762,736,
6.77,738,
6.777,728,
6.784,737,
6.791,732,
6.798,726,
6.805,732,
6.812,734,
6.82,759,
6.827,800,
6.834,823,
6.841,823,
6.848,780,
6.855,740,
6.862,725,
6.87,721,
6.877,718,
6.884,727,
6.891,725,
6.898,725,
6.905,727,
6.912,725,
6.92,727,
6.927,737,
6.934,728,
6.941,728,
6.948,733,
6.955,730,
6.962,737,
6.97,738,
6.977,729,
6.984,735,
6.991,739,
6.998,732,
7.005,742,
7.012,737,
7.02,734,
7.027,742,
7.034,739,
7.041,747,
7.048,747,
7.055,740,
7.062,747,
7.07,738,
7.077,742,
7.084,746,
7.091,743,
7.098,743,
7.105,746,
7.112,734,
7.12,744,
7.127,738,
7.134,734,
7.141,737,
7.148,736,
7.155,729,
7.162,737,
7.17,732,
7.177,731,
7.184,738,
7.191,726,
7.198,731,
7.205,735,
7.212,731,
7.22,733,
7.227,735,
7.234,735,
7.241,738,
7.248,736,
7.255,732,
7.262,736,
7.27,734,
7.277,732,
7.284,739,
7.291,730,
7.298,735,
7.305,737,
7.312,729,
7.32,739,
7.327,737,
7.334,729,
7.341,737,
7.348,736,
7.355,734,
7.362,740,
7.37,738,
7.377,734,
7.384,745,
7.391,742,
7.398,737,
7.405,745,
7.412,732,
7.42,740,
7.427,736,
7.434,730,
7.441,735,
7.448,732,
7.455,728,
7.462,736,
7.47,729,
7.477,729,
7.484,756,
7.491,788,
7.498,826,
7.505,829,
7.512,781,
7.52,742,
7.527,727,
7.534,719,
7.541,722,
7.548,727,
7.555,720,
7.562,725,
7.57,725,
7.577,723,
7.584,730,
7.591,726,
7.598,721,
7.605,727,
7.612,728,
7.62,738,
7.627,730,
7.634,731,
7.641,734,
7.648,727,
7.655,742,
7.662,737,
7.67,735,
7.677,741,
7.684,737,
7.691,737,
7.698,746,
7.705,739,
7.712,740,
7.72,740,
7.727,739,
7.734,743,
7.741,749,
7.748,739,
7.755,744,
7.762,746,
7.77,735,
7.777,743,
7.784,742,
7.794,737,
7.801,741,
7.808,731,
7.815,733,
7.822,735,
7.829,726,
7.837,732,
7.844,737,
7.851,733,
7.858,734,
7.865,736,
7.872,731,
7.879,735,
7.887,739,
7.894,731,
7.901,737,
7.908,732,
7.915,731,
7.922,740,
7.929,734,
7.937,733,
7.944,738,
7.951,732,
7.958,735,
7.965,741,
7.972,729,
7.979,732,
7.987,743,
7.994,732,
8.001,738,
8.008,739,
8.015,734,
8.022,739,
8.029,741,
8.037,735,
8.044,744,
8.051,741,
8.058,739,
8.065,745,
8.072,735,
8.079,735,
8.087,738,
8.094,727,
8.101,732,
8.108,733,
8.115,732,
8.122,736,
8.129,732,
8.137,730,
8.144,749,
8.151,819,
8.158,835,
8.165,791,
8.172,752,
8.179,729,
8.187,718,
8.194,725,
8.201,731,
8.208,722,
8.215,728,
8.222,727,
8.229,718,
8.237,727,
8.244,729,
8.251,724,
8.258,733,
8.265,728,
8.272,730,
8.279,736,
8.287,730,
8.294,735,
8.301,736,
8.308,735,
8.315,737,
8.322,742,
8.329,738,
8.337,738,
8.344,744,
8.351,729,
8.358,744,
8.365,741,
8.372,742,
8.379,745,
8.387,743,
8.394,739,
8.401,752,
8.408,743,
8.415,746,
8.422,749,
8.429,741,
8.437,743,
8.444,742,
8.451,737,
8.458,739,
8.465,734,
8.472,730,
8.479,738,
8.487,735,
8.494,736,
8.501,734,
8.508,730,
8.515,735,
8.522,737,
8.529,732,
8.537,735,
8.544,738,
8.551,731,
8.558,737,
8.565,735,
8.572,733,
8.579,742,
8.587,735,
8.594,734,
8.601,741,
8.608,737,
8.615,731,
8.622,741,
8.629,733,
8.637,733,
8.644,738,
8.651,730,
8.658,731,
8.665,740,
8.672,734,
8.679,737,
8.687,738,
8.694,738,
8.701,741,
8.708,737,
8.715,746,
8.722,737,
8.729,737,
8.737,739,
8.744,733,
8.751,734,
8.758,735,
8.765,729,
8.772,731,
8.779,731,
8.787,733,
8.794,766,
8.801,794,
8.808,818,
8.815,816,
8.822,758,
8.829,723,
8.837,722,
8.844,722,
8.851,725,
8.858,731,
8.865,726,
8.872,726,
8.879,736,
8.887,724,
8.894,731,
8.901,733,
8.908,726,
8.915,732,
8.922,735,
8.929,731,
8.937,733,
8.944,732,
8.951,736,
8.958,745,
8.965,733,
8.972,734,
8.979,739,
8.987,734,
8.994,739,
9.001,739,
9.008,733,
9.015,741,
9.022,742,
9.029,741,
9.037,743,
9.044,745,
9.051,742,
9.058,748,
9.065,742,
9.072,742,
9.079,755,
9.087,741,
9.094,741,
9.101,741,
9.108,733,
9.115,734,
9.122,735,
9.129,729,
9.137,736,
9.144,730,
9.151,729,
9.158,739,
9.165,734,
9.172,734,
9.179,738,
9.187,733,
9.194,732,
9.201,734,
9.208,728,
9.215,729,
9.222,735,
9.229,732,
9.237,735,
9.244,729,
9.251,736,
9.258,732,
9.265,733,
9.272,737,
9.279,730,
9.287,734,
9.294,742,
9.301,729,
9.308,734,
9.315,741,
9.322,736,
9.329,734,
9.337,741,
9.344,736,
9.351,738,
9.358,739,
9.365,733,
9.372,734,
9.379,732,
9.387,730,
9.394,734,
9.401,732,
9.408,727,
9.415,737,
9.422,731,
9.429,755,
9.437,787,
9.444,812,
9.451,810,
9.458,768,
9.465,726,
9.472,723,
9.479,723,
9.487,719,
9.494,725,
9.501,725,
9.508,724,
9.515,730,
9.522,723,
9.529,728,
9.537,732,
9.544,725,
9.551,729,
9.558,735,
9.565,730,
9.572,736,
9.579,734,
9.587,733,
9.594,736,
9.601,735,
9.608,733,
9.615,741,
9.622,735,
9.629,735,
9.637,743,
9.644,737,
9.651,739,
9.658,743,
9.665,736,
9.672,740,
9.679,742,
9.687,738,
9.694,745,
9.701,743,
9.708,740,
9.715,747,
9.722,743,
9.729,740,
9.737,736,
9.744,734,
9.751,726,
9.758,740,
9.765,728,
9.772,729,
9.779,727,
9.787,732,
9.794,733,
9.801,731,
9.808,738,
9.815,735,
9.822,731,
9.83,740,
9.837,733,
9.844,731,
9.851,739,
9.858,734,
9.865,737,
9.872,743,
9.879,731,
9.887,734,
9.894,740,
9.901,729,
9.908,740,
9.915,735,
9.922,732,
9.93,740,
9.937,741,
9.944,736,
9.951,744,
9.958,737,
9.965,738,
9.972,743,
9.98,737,
9.987,734,
9.994,741,
10.001,729,
10.008,736,
10.015,734,
10.022,732,
10.03,735,
10.037,731,
10.044,729,
10.051,743,
10.058,768,
10.065,801,
10.072,822,
10.079,796,
10.093,727,
10.094,727,
10.101,719,
10.108,726,
10.115,730,
10.122,723,
10.129,723,
10.137,728,
10.144,724,
10.151,731,
10.158,729,
10.165,730,
10.172,730,
10.18,734,
10.187,729,
10.194,736,
10.201,730,
10.208,733,
10.215,737,
10.222,732,
10.23,734,
10.237,738,
10.244,731,
10.251,738,
10.258,738,
10.265,733,
10.272,744,
10.279,738,
10.287,739,
10.294,749,
10.301,744,
10.308,750,
10.315,741,
10.322,740,
10.329,748,
10.337,741,
10.344,744,
10.351,741,
10.358,733,
10.365,736,
10.372,737,
10.379,733,
10.387,737,
10.394,730,
10.401,726,
10.408,736,
10.415,733,
10.422,734,
10.429,741,
10.437,728,
10.444,729,
10.451,741,
10.458,731,
10.465,734,
10.472,735,
10.479,730,
10.487,735,
10.494,735,
10.501,727,
10.508,740,
10.515,735,
10.522,733,
10.529,739,
10.537,730,
10.544,733,
10.551,742,
10.558,730,
10.565,739,
10.572,741,
10.579,732,
10.587,737,
10.594,741,
10.601,733,
10.608,736,
10.615,733,
10.622,731,
10.629,737,
10.637,731,
10.644,730,
10.651,736,
10.658,729,
10.665,724,
10.672,736,
10.679,746,
10.687,784,
10.694,820,
10.701,814,
10.708,777,
10.715,749,
10.722,712,
10.729,726,
10.737,724,
10.744,725,
10.751,726,
10.758,721,
10.765,724,
10.772,733,
10.779,724,
10.787,725,
10.794,731,
10.801,726,
10.808,729,
10.815,731,
10.822,725,
10.829,731,
10.837,730,
10.844,738,
10.851,735,
10.858,736,
10.865,739,
10.872,732,
10.879,733,
10.887,741,
10.894,735,
10.901,737,
10.908,742,
10.915,733,
10.922,741,
10.929,739,
10.937,738,
10.944,744,
10.951,737,
10.958,738,
10.965,743,
10.972,741,
10.979,734,
10.987,739,
10.994,730,
11.001,731,
11.008,729,
11.015,725,
11.022,730,
11.029,732,
11.037,725,
11.044,728,
11.051,732,
11.058,729,
11.065,734,
11.072,733,
11.079,730,
11.087,738,
11.094,732,
11.101,731,
11.108,736,
11.115,731,
11.122,736,
11.129,734,
11.137,727,
11.144,731,
11.151,734,
11.158,726,
11.165,737,
11.172,733,
11.179,733,
11.187,740,
11.194,733,
11.201,730,
11.208,744,
11.215,732,
11.222,735,
11.229,739,
11.237,729,
11.244,731,
11.251,734,
11.258,723,
11.265,731,
11.272,735,
11.279,728,
11.287,726,
11.294,739,
11.301,758,
11.308,798,
11.315,823,
11.322,805,
11.329,756,
11.337,718,
11.344,720,
11.351,719,
11.358,722,
11.365,727,
11.372,722,
11.379,729,
11.387,727,
11.394,723,
11.401,729,
11.408,729,
11.415,724,
11.422,740,
11.429,726,
11.437,729,
11.444,737,
11.451,725,
11.458,728,
11.465,738,
11.472,730,
11.479,735,
11.487,739,
11.494,736,
11.501,737,
11.508,737,
11.515,736,
11.522,742,
11.529,740,
11.537,743,
11.544,744,
11.551,740,
11.558,740,
11.565,749,
11.572,736,
11.579,741,
11.587,744,
11.594,727,
11.601,737,
11.608,734,
11.615,727,
11.622,734,
11.629,729,
11.637,726,
11.644,732,
11.651,732,
11.658,731,
11.665,737,
11.672,728,
11.679,733,
11.687,737,
11.694,725,
11.701,729,
11.708,732,
11.715,728,
11.723,729,
11.729,733,
11.737,729,
11.744,740,
11.751,734,
11.758,728,
11.765,739,
11.772,729,
11.779,732,
11.787,738,
11.794,734,
11.801,735,
11.808,737,
11.815,732,
11.822,735,
11.829,737,
11.837,735,
11.844,738,
11.851,732,
11.858,726,
11.865,728,
11.872,724,
11.879,735,
11.887,724,
11.894,725,
11.901,746,
11.908,777,
11.915,814,
11.922,822,
11.929,777,
11.937,747,
11.944,723,
11.951,714,
11.958,724,
11.965,723,
11.972,716,
11.979,726,
11.987,725,
11.994,724,
12.001,728,
12.008,723,
12.015,723,
12.022,735,
12.029,721,
12.037,730,
12.044,734,
12.051,727,
12.058,732,
12.065,733,
12.072,730,
12.079,736,
12.087,734,
12.094,729,
12.101,738,
12.108,738,
12.115,738,
12.122,740,
12.129,737,
12.137,740,
12.144,743,
12.151,734,
12.158,740,
12.165,745,
12.172,737,
12.179,742,
12.187,744,
12.194,735,
12.201,743,
12.208,736,
12.215,732,
12.222,734,
12.229,729,
12.237,731,
12.244,737,
12.251,726,
12.258,729,
12.265,732,
12.272,727,
12.279,733,
12.287,730,
12.294,728,
12.301,732,
12.308,729,
12.315,727,
12.322,736,
12.329,738,
12.337,732,
12.344,735,
12.351,731,
12.358,730,
12.365,735,
12.372,727,
12.379,729,
12.387,730,
12.394,738,
12.401,737,
12.408,728,
12.415,738,
12.422,737,
12.429,734,
12.437,738,
12.444,731,
12.451,730,
12.458,734,
12.465,731,
12.472,731,
12.479,735,
12.487,722,
12.494,727,
12.501,730,
12.508,739,
12.515,781,
12.522,819,
12.529,816,
12.537,782,
12.544,743,
12.551,720,
12.558,725,
12.565,721,
12.572,719,
12.579,728,
12.587,718,
12.594,724,
12.601,724,
12.608,721,
12.615,729,
12.622,727,
12.629,724,
12.637,731,
12.644,730,
12.651,726,
12.658,733,
12.665,733,
12.672,728,
12.679,735,
12.687,729,
12.694,728,
12.701,742,
12.708,735,
12.715,739,
12.722,740,
12.729,726,
12.737,745,
12.744,746,
12.751,736,
12.758,740,
12.765,741,
12.772,737,
12.779,747,
12.787,743,
12.794,741,
12.801,744,
12.808,735,
12.815,731,
12.822,736,
12.829,725,
12.837,728,
12.844,735,
12.851,725,
12.858,728,
12.865,730,
12.872,727,
12.88,732,
12.887,731,
12.894,731,
12.901,731,
12.908,727,
12.915,741,
12.922,733,
12.929,730,
12.937,732,
12.944,736,
12.951,734,
12.958,735,
12.965,729,
12.972,732,
12.979,735,
12.987,726,
12.994,733,
13.001,729,
13.008,736,
13.015,741,
13.022,738,
13.029,738,
13.037,744,
13.044,729,
13.051,729,
13.058,737,
13.065,740,
13.072,735,
13.079,733,
13.087,730,
13.094,733,
13.101,738,
13.108,726,
13.115,736,
13.122,718,
13.129,719,
13.137,740,
13.144,742,
13.151,773,
13.158,825,
13.165,826,
13.172,787,
13.179,750,
13.187,717,
13.194,728,
13.201,719,
13.208,711,
13.215,729,
13.222,726,
13.23,715,
13.237,723,
13.244,725,
13.251,721,
13.258,731,
13.265,726,
13.272,726,
13.279,741,
13.287,729,
13.294,734,
13.301,738,
13.308,734,
13.315,733,
13.322,748,
13.329,730,
13.337,751,
13.344,745,
13.351,733,
13.358,743,
13.365,745,
13.372,752,
13.379,747,
13.387,748,
13.394,749,
13.401,749,
13.408,759,
13.415,755,
13.422,746,
13.429,749,
13.437,747,
13.444,755,
13.451,741,
13.458,749,
13.465,731,
13.472,744,
13.479,741,
13.487,743,
13.494,737,
13.501,731,
13.508,736,
13.515,739,
13.522,745,
13.529,751,
13.537,736,
13.544,744,
13.551,760,
13.558,734,
13.565,747,
13.572,740,
13.579,724,
13.587,736,
13.594,723,
13.601,739,
13.608,745,
13.615,748,
13.622,697,
13.629,733,
13.637,707,
13.644,745,
13.651,713,
13.658,703,
13.665,724,
13.672,710,
13.679,708,
13.687,724,
13.694,705,
13.701,705,
13.708,725,
13.715,713,
13.722,717,
13.73,711,
13.737,715,
13.744,715,
13.751,724,
13.758,739,
13.765,727,
13.772,706,
13.779,736,
13.787,734,
13.794,707,
13.801,730,
13.808,759,
13.815,792,
13.822,784,
13.829,771,
13.837,721,
13.844,694,
13.851,691,
13.858,685,
13.865,688,
13.872,672,
13.879,679,
13.887,675,
13.894,690,
13.901,688,
13.908,683,
13.915,681,
13.922,675,
13.929,701,
13.937,691,
13.944,691,
13.951,707,
13.958,696,
13.965,700,
13.972,694,
13.979,697,
13.987,702,
13.994,721,
14.001,704,
14.008,733,
14.015,713,
14.022,719,
14.029,737,
14.037,749,
14.044,728,
14.051,743,
14.058,751,
14.065,762,
14.072,758,
14.079,768,
14.087,749,
14.094,767,
14.101,757,
14.108,768,
14.115,781,
14.122,778,
14.129,804,
14.137,807,
14.144,821,
14.151,843,
14.158,834,
14.165,819,
14.172,837,
14.179,816,
14.187,814,
14.194,817,
14.201,769,
14.208,799,
14.215,784,
14.222,767,
14.229,802,
14.237,782,
14.244,779,
14.251,804,
14.258,814,
14.265,808,
14.272,804,
14.279,788,
14.287,776,
14.294,763,
14.301,749,
14.308,742,
14.315,755,
14.322,770,
14.329,782,
14.337,779,
14.344,771,
14.351,748,
14.358,740,
14.365,739,
14.372,743,
14.379,728,
14.387,706,
14.394,716,
14.401,700,
14.408,706,
14.415,709,
14.422,685,
14.429,689,
14.437,691,
14.444,699,
14.451,728,
14.458,744,
14.465,724,
14.472,673,
14.479,667,
14.487,669,
14.494,660,
14.501,656,
14.508,654,
14.515,652,
14.522,660,
14.529,673,
14.537,672,
14.544,684,
14.551,689,
14.558,685,
14.565,706,
14.572,691,
14.579,675,
14.587,688,
14.594,688,
14.601,703,
14.608,698,
14.615,700,
14.622,731,
14.629,731,
14.637,734,
14.644,723,
14.651,721,
14.658,706,
14.665,697,
14.672,700,
14.679,686,
14.687,718,
14.694,685,
14.701,709,
14.708,717,
14.715,704,
14.722,704,
14.73,699,
14.737,685,
14.744,684,
14.751,676,
14.758,676,
14.765,680,
14.772,686,
14.779,654,
14.787,691,
14.794,677,
14.801,688,
14.808,682,
14.815,678,
14.822,673,
14.829,679,
14.837,668,
14.844,663,
14.851,682,
14.858,659,
14.865,666,
14.872,654,
14.879,662,
14.887,654,
14.894,651,
14.901,632,
14.908,638,
14.915,635,
14.922,616,
14.93,614,
14.937,609,
14.944,605,
14.951,605,
14.958,577,
14.965,571,
14.972,558,
14.979,526,
14.987,532,
14.994,519,
15.001,505,
15.008,505,
15.015,489,
15.022,470,
15.029,450,
15.037,444,
15.044,440,
15.051,414,
15.058,425,
15.065,449,
15.072,461,
15.079,502,
15.087,520,
15.094,502,
15.101,474,
15.108,448,
15.115,431,
15.122,441,
15.129,456,
15.137,466,
15.144,479,
15.151,473,
15.158,473,
15.165,487,
15.172,486,
15.179,471,
15.187,486,
15.194,484,
15.201,490,
15.208,500,
15.215,477,
15.222,493,
15.229,501,
15.237,481,
15.244,503,
15.251,496,
15.258,492,
15.265,496,
15.272,493,
15.279,495,
15.287,508,
15.294,480,
15.301,482,
15.308,491,
15.315,498,
15.322,504,
15.329,501,
15.337,493,
15.344,496,
15.351,505,
15.358,513,
15.365,498,
15.372,494,
15.379,493,
15.387,503,
15.394,500,
15.401,492,
15.408,494,
15.415,497,
15.422,494,
15.429,500,
15.437,494,
15.444,498,
15.451,495,
15.458,482,
15.465,499,
15.472,497,
15.479,485,
15.487,513,
15.494,488,
15.501,494,
15.508,507,
15.515,485,
15.522,485,
15.53,497,
15.537,495,
15.544,501,
15.551,505,
15.558,486,
15.565,506,
15.572,500,
15.579,500,
15.587,505,
15.594,495,
15.601,510,
15.608,498,
15.615,500,
15.622,512,
15.629,499,
15.637,513,
15.644,521,
15.651,499,
15.658,513,
15.665,513,
15.672,508,
15.679,514,
15.687,512,
15.694,502,
15.701,515,
15.708,517,
15.715,501,
15.722,516,
15.729,499,
15.737,515,
15.744,556,
15.751,579,
15.758,602,
15.765,571,
15.772,524,
15.779,500,
15.787,504,
15.794,498,
15.801,500,
15.808,496,
15.815,510,
15.822,520,
15.829,509,
15.837,508,
15.844,516,
15.851,504,
15.858,510,
15.865,522,
15.872,505,
15.879,519,
15.887,522,
15.894,508,
15.901,512,
15.908,525,
15.915,500,
15.922,519,
15.93,521,
15.937,523,
15.944,537,
15.951,516,
15.958,525,
15.965,537,
15.972,523,
15.979,534,
15.987,546,
15.994,522,
16.001,526,
16.008,534,
16.015,521,
16.022,542,
16.03,541,
16.037,519,
16.044,536,
16.051,528,
16.058,520,
16.065,534,
16.072,529,
16.079,512,
16.087,526,
16.094,534,
16.101,535,
16.108,521,
16.115,532,
16.122,528,
16.13,525,
16.137,536,
16.144,541,
16.151,529,
16.158,537,
16.165,536,
16.172,531,
16.179,541,
16.187,529,
16.194,540,
16.201,537,
16.208,536,
16.215,539,
16.222,542,
16.229,539,
16.237,545,
16.244,544,
16.251,547,
16.258,540,
16.265,540,
16.272,548,
16.279,545,
16.287,542,
16.294,547,
16.301,558,
16.308,548,
16.315,552,
16.322,556,
16.329,550,
16.337,555,
16.344,562,
16.351,554,
16.358,568,
16.365,554,
16.372,552,
16.379,559,
16.387,552,
16.394,552,
16.401,561,
16.408,550,
16.415,554,
16.422,566,
16.429,559,
16.437,577,
16.444,623,
16.451,646,
16.458,647,
16.465,620,
16.472,559,
16.479,545,
16.487,549,
16.494,553,
16.501,557,
16.508,550,
16.515,546,
16.522,559,
16.529,544,
16.537,563,
16.544,563,
16.551,550,
16.558,554,
16.565,560,
16.572,550,
16.579,563,
16.587,562,
16.594,556,
16.601,570,
16.608,569,
16.616,568,
16.622,565,
16.629,570,
16.637,581,
16.644,571,
16.651,586,
16.658,578,
16.665,566,
16.672,579,
16.679,585,
16.687,580,
16.694,586,
16.701,584,
16.708,584,
16.715,592,
16.722,584,
16.729,579,
16.737,585,
16.744,576,
16.751,587,
16.758,572,
16.765,565,
16.772,572,
16.78,576,
16.787,568,
16.794,578,
16.801,583,
16.808,561,
16.815,576,
16.823,574,
16.829,572,
16.837,584,
16.844,574,
16.851,568,
16.858,583,
16.865,571,
16.872,574,
16.879,582,
16.887,569,
16.894,573,
16.901,574,
16.908,575,
16.915,564,
16.922,576,
16.929,567,
16.937,579,
16.944,575,
16.951,570,
16.958,583,
16.965,574,
16.972,578,
16.979,582,
16.987,569,
16.994,582,
17.001,573,
17.008,572,
17.015,577,
17.022,579,
17.029,571,
17.037,588,
17.044,584,
17.051,571,
17.058,589,
17.065,584,
17.072,581,
17.079,584,
17.087,580,
17.094,589,
17.101,589,
17.108,576,
17.115,578,
17.122,582,
17.129,576,
17.137,585,
17.144,578,
17.151,576,
17.158,578,
17.165,586,
17.172,633,
17.179,660,
17.187,673,
17.194,649,
17.201,598,
17.208,574,
17.215,582,
17.222,562,
17.229,580,
17.237,569,
17.244,566,
17.251,579,
17.258,575,
17.265,572,
17.272,587,
17.279,588,
17.287,572,
17.294,586,
17.301,580,
17.308,581,
17.315,592,
17.322,587,
17.329,580,
17.337,589,
17.344,580,
17.351,590,
17.358,595,
17.365,577,
17.372,595,
17.379,593,
17.387,593,
17.394,604,
17.401,584,
17.408,595,
17.415,604,
17.422,595,
17.429,599,
17.437,611,
17.444,592,
17.451,601,
17.458,603,
17.465,592,
17.472,599,
17.479,593,
17.487,586,
17.494,595,
17.501,586,
17.508,587,
17.515,591,
17.522,584,
17.53,588,
17.537,593,
17.544,584,
17.551,590,
17.558,592,
17.565,586,
17.572,590,
17.579,590,
17.587,584,
17.594,595,
17.601,593,
17.608,584,
17.615,597,
17.622,584,
17.629,583,
17.637,595,
17.644,592,
17.651,589,
17.658,597,
17.665,584,
17.672,596,
17.679,588,
17.687,587,
17.694,595,
17.701,588,
17.708,587,
17.715,592,
17.722,589,
17.729,602,
17.737,592,
17.744,587,
17.751,602,
17.758,589,
17.765,594,
17.772,597,
17.78,589,
17.787,593,
17.794,600,
17.801,598,
17.808,597,
17.815,598,
17.822,590,
17.829,601,
17.837,602,
17.844,600,
17.851,597,
17.858,594,
17.865,588,
17.872,599,
17.879,590,
17.887,593,
17.894,595,
17.901,586,
17.908,608,
17.915,649,
17.922,666,
17.929,680,
17.937,644,
17.944,606,
17.951,585,
17.958,584,
17.965,586,
17.972,590,
17.979,585,
17.987,587,
17.994,593,
18.001,591,
18.008,588,
18.015,595,
18.022,584,
18.029,590,
18.037,596,
18.044,584,
18.051,599,
18.058,599,
18.065,589,
18.072,604,
18.079,596,
18.087,597,
18.094,603,
18.101,597,
18.108,596,
18.115,605,
18.122,599,
18.129,602,
18.137,607,
18.144,601,
18.151,605,
18.158,608,
18.165,604,
18.172,608,
18.179,610,
18.187,602,
18.194,612,
18.201,607,
18.208,603,
18.215,612,
18.222,595,
18.229,601,
18.237,591,
18.244,596,
18.251,598,
18.258,588,
18.265,593,
18.272,600,
18.279,586,
18.287,599,
18.294,600,
18.301,592,
18.308,605,
18.315,592,
18.322,597,
18.329,608,
18.337,595,
18.344,599,
18.351,599,
18.358,595,
18.365,602,
18.372,601,
18.379,591,
18.387,599,
18.394,596,
18.401,591,
18.408,606,
18.415,601,
18.422,592,
18.429,607,
18.437,596,
18.444,597,
18.451,606,
18.458,590,
18.465,594,
18.472,604,
18.479,596,
18.487,599,
18.494,601,
18.501,594,
18.508,604,
18.515,602,
18.522,595,
18.529,610,
18.537,604,
18.544,603,
18.551,608,
18.558,600,
18.565,599,
18.572,604,
18.579,595,
18.587,602,
18.594,598,
18.601,592,
18.608,596,
18.615,603,
18.622,606,
18.629,649,
18.637,681,
18.644,684,
18.651,659,
18.658,614,
18.665,585,
18.672,594,
18.679,579,
18.687,591,
18.694,594,
18.701,588,
18.708,595,
18.715,598,
18.722,590,
18.729,599,
18.737,593,
18.744,607,
18.751,607,
18.758,597,
18.765,592,
18.772,595,
18.779,599,
18.787,609,
18.794,601,
18.801,597,
18.808,607,
18.815,598,
18.822,611,
18.829,603,
18.837,596,
18.844,610,
18.851,610,
18.858,610,
18.865,621,
18.872,610,
18.879,610,
18.887,621,
18.894,610,
18.901,612,
18.908,614,
18.915,604,
18.922,607,
18.929,608,
18.937,600,
18.944,602,
18.951,599,
18.958,593,
18.965,605,
18.972,600,
18.979,592,
18.987,604,
18.994,597,
19.001,602,
19.008,607,
19.015,596,
19.022,599,
19.029,609,
19.037,594,
19.044,602,
19.051,610,
19.058,599,
19.065,604,
19.072,604,
19.079,598,
19.087,610,
19.094,605,
19.101,600,
19.108,607,
19.115,602,
19.122,604,
19.129,610,
19.137,593,
19.144,605,
19.151,607,
19.158,604,
19.165,605,
19.172,602,
19.179,597,
19.187,608,
19.194,611,
19.201,599,
19.208,610,
19.215,599,
19.222,605,
19.229,605,
19.237,603,
19.244,607,
19.251,610,
19.258,604,
19.265,608,
19.272,613,
19.279,601,
19.287,611,
19.294,599,
19.301,610,
19.308,608,
19.315,601,
19.322,609,
19.329,602,
19.337,603,
19.344,609,
19.351,604,
19.358,615,
19.365,656,
19.372,684,
19.379,703,
19.387,662,
19.394,618,
19.401,598,
19.408,599,
19.415,590,
19.422,599,
19.429,600,
19.437,596,
19.444,603,
19.451,594,
19.458,597,
19.465,611,
19.472,594,
19.479,599,
19.487,606,
19.494,597,
19.501,606,
19.508,602,
19.515,599,
19.522,610,
19.529,607,
19.537,602,
19.544,621,
19.551,605,
19.558,601,
19.565,615,
19.572,610,
19.579,611,
19.587,618,
19.594,610,
19.601,616,
19.608,616,
19.615,612,
19.622,619,
19.629,622,
19.637,616,
19.644,624,
19.651,615,
19.658,615,
19.665,620,
19.672,609,
19.679,609,
19.687,616,
19.694,600,
19.701,603,
19.708,608,
19.715,602,
19.722,609,
19.729,606,
19.737,599,
19.744,607,
19.751,606,
19.758,608,
19.765,604,
19.772,601,
19.779,604,
19.787,614,
19.794,612,
19.801,605,
19.808,609,
19.815,600,
19.822,608,
19.829,611,
19.837,598,
19.844,606,
19.851,599,
19.858,609,
19.865,613,
19.872,604,
19.879,613,
19.887,604,
19.894,606,
19.901,618,
19.908,614,
19.915,602,
19.922,609,
19.929,598,
19.937,608,
19.944,617,
19.951,600,
19.958,607,
19.965,607,
19.972,599,
19.979,613,
19.987,609,
19.994,606,
20.001,614,
20.008,607,
20.015,612,
20.022,617,
20.029,604,
20.037,613,
20.044,617,
20.051,610,
20.058,607,
20.065,611,
20.072,597,
20.079,612,
20.087,602,
20.094,602,
20.101,611,
20.108,604,
20.115,613,
20.122,647,
20.129,673,
20.137,703,
20.144,692,
20.151,636,
20.158,602,
20.165,597,
20.172,592,
20.179,600,
20.187,599,
20.194,590,
20.201,608,
20.208,598,
20.215,598,
20.222,606,
20.229,603,
20.237,603,
20.244,612,
20.251,602,
20.258,602,
20.265,609,
20.272,602,
20.279,606,
20.287,606,
20.294,601,
20.301,613,
20.308,614,
20.315,605,
20.322,616,
20.329,612,
20.337,614,
20.344,624,
20.351,615,
20.358,618,
20.365,618,
20.372,610,
20.379,620,
20.387,612,
20.394,621,
20.401,619,
20.408,614,
20.415,618,
20.422,617,
20.429,610,
20.437,615,
20.444,606,
20.451,602,
20.458,616,
20.465,601,
20.472,604,
20.479,611,
20.487,600,
20.494,606,
20.501,612,
20.508,605,
20.515,609,
20.522,612,
20.529,604,
20.537,612,
20.544,609,
20.551,608,
20.558,613,
20.565,609,
20.572,609,
20.579,617,
20.587,604,
20.594,612,
20.601,606,
20.608,602,
20.615,609,
20.622,613,
20.629,600,
20.637,609,
20.644,614,
20.651,606,
20.658,613,
20.665,606,
20.672,610,
20.679,613,
20.687,604,
20.694,610,
20.701,615,
20.708,606,
20.715,606,
20.722,614,
20.729,609,
20.737,610,
20.744,611,
20.751,605,
20.758,618,
20.765,611,
20.772,608,
20.779,616,
20.787,611,
20.794,614,
20.801,620,
20.808,613,
20.815,611,
20.822,618,
20.829,609,
20.837,617,
20.844,612,
20.851,604,
20.858,610,
20.865,608,
20.872,606,
20.88,615,
20.887,603,
20.894,601,
20.901,622,
20.908,640,
20.915,675,
20.922,711,
20.929,682,
20.937,609,
20.944,592,
20.951,595,
20.958,602,
20.965,591,
20.972,604,
20.979,601,
20.987,595,
20.994,604,
21.001,601,
21.008,597,
21.015,611,
21.022,597,
21.029,605,
21.037,608,
21.044,599,
21.051,606,
21.058,610,
21.065,603,
21.072,612,
21.079,608,
21.087,607,
21.094,612,
21.101,609,
21.108,609,
21.115,619,
21.122,613,
21.129,617,
21.137,622,
21.144,611,
21.151,620,
21.158,622,
21.165,613,
21.172,616,
21.179,622,
21.187,616,
21.194,619,
21.201,617,
21.208,612,
21.215,620,
21.222,606,
21.229,602,
21.237,609,
21.244,601,
21.251,602,
21.258,603,
21.265,594,
21.273,601,
21.279,598,
21.287,585,
21.294,591,
21.301,585,
21.308,580,
21.315,586,
21.322,576,
21.329,574,
21.337,582,
21.344,580,
21.351,577,
21.358,585,
21.365,578,
21.372,580,
21.379,583,
21.387,572,
21.394,583,
21.401,576,
21.408,576,
21.415,583,
21.422,587,
21.429,577,
21.437,593,
21.444,582,
21.451,580,
21.458,590,
21.465,585,
21.472,585,
21.479,594,
21.487,585,
21.494,589,
21.501,587,
21.508,586,
21.515,595,
21.522,588,
21.53,598,
21.537,596,
21.544,590,
21.551,606,
21.558,595,
21.565,600,
21.572,602,
21.579,604,
21.587,589,
21.594,605,
21.601,596,
21.608,601,
21.615,602,
21.622,592,
21.629,601,
21.637,602,
21.644,585,
21.651,599,
21.658,610,
21.665,624,
21.672,668,
21.679,690,
21.687,675,
21.694,636,
21.701,599,
21.708,588,
21.715,597,
21.722,593,
21.729,595,
21.737,598,
21.744,589,
21.751,597,
21.758,601,
21.765,598,
21.772,609,
21.779,602,
21.787,595,
21.794,609,
21.801,599,
21.808,597,
21.815,623,
21.822,594,
21.829,617,
21.837,607,
21.844,601,
21.851,618,
21.858,606,
21.865,598,
21.872,617,
21.879,602,
21.887,608,
21.894,617,
21.901,616,
21.908,618,
21.915,625,
21.922,610,
21.929,617,
21.937,617,
21.944,612,
21.951,621,
21.958,616,
21.965,615,
21.972,612,
21.979,607,
21.987,598,
21.994,598,
22.001,604,
22.008,597,
22.015,608,
22.022,590,
22.029,590,
22.037,0,
22.044,0,
22.051,0,
22.058,0,
22.065,0,
22.072,0,
22.079,0,
22.087,0,
22.094,0,
22.101,0,
22.108,0,
22.115,0,
22.122,0,
22.13,0,
22.137,0,
22.144,0,
22.151,0,
22.158,0,
22.165,0,
22.172,0,
22.179,0,
22.187,0,
22.194,0,
22.201,0,
22.208,0,
22.215,0,
22.222,0,
22.229,0,
22.237,0,
22.244,0,
22.251,0,
22.258,0,
22.265,0,
22.272,0,
22.279,0,
22.287,0,
22.294,0,
22.301,0,
22.308,0,
22.315,0,
22.322,0,
22.329,0,
22.337,0,
22.344,0,
22.351,0,
22.358,0,
22.365,0,
22.372,0,
22.379,0,
22.387,0,
22.394,0,
22.401,0,
22.408,0,
22.415,0,
22.422,0,
22.429,0,
22.437,0,
22.444,0,
22.451,0,
22.458,0,
22.465,0,
22.472,0,
22.479,0,
22.487,0,
22.494,0,
22.501,0,
22.508,0,
22.515,0,
22.522,0,
22.529,0,
22.537,0,
22.544,0,
22.551,0,
22.558,0,
22.565,0,
22.572,0,
22.579,0,
22.587,0,
22.594,0,
22.601,0,
22.608,0,
22.615,0,
22.622,0,
22.629,0,
22.637,0,
22.644,0,
22.651,0,
22.658,0,
22.665,0,
22.672,0,
22.679,0,
22.687,0,
22.694,0,
22.701,0,
22.708,0,
22.715,0,
22.722,0,
22.729,0,
22.737,0,
22.744,0,
22.751,0,
22.758,0,
22.765,0,
22.772,0,
22.779,0,
22.787,0,
22.794,0,
22.801,0,
22.808,0,
22.815,0,
22.822,0,
22.829,0,
22.837,0,
22.844,0,
22.851,0,
22.858,0,
22.865,0,
22.872,0,
22.879,0,
22.887,0,
22.894,0,
22.901,0,
22.908,0,
22.915,0,
22.922,0,
22.929,0,
22.937,0,
22.944,0,
22.951,0,
22.958,0,
22.965,0,
22.972,0,
22.979,0,
22.987,0,
22.994,0,
23.001,0,
23.008,0,
23.015,0,
23.022,0,
23.029,0,
23.037,0,
23.044,0,
23.051,0,
23.058,0,
23.065,0,
23.072,0,
23.079,0,
23.087,0,
23.094,0,
23.101,0,
23.108,0,
23.115,0,
23.122,0,
23.129,0,
23.137,0,
23.144,0,
23.151,0,
23.158,0,
23.165,0,
23.172,0,
23.179,0,
23.187,0,
23.194,0,
23.201,0,
23.208,0,
23.215,0,
23.222,0,
23.229,0,
23.237,0,
23.244,0,
23.251,0,
23.258,0,
23.265,0,
23.272,0,
23.279,0,
23.287,0,
23.294,0,
23.301,0,
23.308,0,
23.315,0,
23.322,0,
23.329,0,
23.337,0,
23.344,0,
23.351,0,
23.358,0,
23.365,0,
23.372,0,
23.379,0,
23.387,0,
23.394,0,
23.401,0,
23.408,0,
23.415,0,
23.422,0,
23.429,0,
23.437,0,
23.444,0,
23.451,0,
23.458,0,
23.465,0,
23.472,0,
23.479,0,
23.487,0,
23.494,0,
23.501,0,
23.508,0,
23.515,0,
23.522,0,
23.529,0,
23.537,0,
23.544,0,
23.551,0,
23.558,0,
23.565,0,
23.572,0,
23.579,0,
23.587,0,
23.594,0,
23.601,0,
23.608,0,
23.615,0,
23.622,0,
23.629,0,
23.637,0,
23.644,0,
23.651,0,
23.658,0,
23.665,0,
23.672,0,
23.679,0,
23.687,0,
23.694,0,
23.701,0,
23.708,0,
23.715,0,
23.722,0,
23.729,0,
23.737,0,
23.744,0,
23.751,0,
23.758,0,
23.765,0,
23.772,0,
23.779,0,
23.787,0,
23.794,0,
23.801,0,
23.808,0,
23.815,0,
23.822,0,
23.829,0,
23.837,0,
23.844,0,
23.851,0,
23.858,0,
23.865,0,
23.872,0,
23.879,0,
23.887,0,
23.894,0,
23.901,0,
23.908,0,
23.915,0,
23.922,0,
23.929,0,
23.937,0,
23.944,0,
23.951,0,
23.958,0,
23.965,0,
23.972,0,
23.979,0,
23.987,0,
23.994,0,
24.001,0,
24.008,0,
24.015,0,
24.022,0,
24.029,0,
24.037,0,
24.044,0,
24.051,0,
24.058,0,
24.065,0,
24.072,0,
24.079,0,
24.087,0,
24.094,0,
24.101,0,
24.108,0,
24.115,0,
24.122,0,
24.129,0,
24.137,0,
24.144,0,
24.151,0,
24.158,0,
24.165,0,
24.172,0,
24.179,0,
24.187,0,
24.194,0,
24.201,0,
24.208,0,
24.215,0,
24.222,0,
24.229,0,
24.237,0,
24.244,0,
24.251,0,
24.258,0,
24.265,0,
24.272,0,
24.279,0,
24.287,0,
24.294,0,
24.301,0,
24.308,0,
24.315,0,
24.322,0,
24.329,0,
24.337,0,
24.344,0,
24.351,0,
24.358,0,
24.365,0,
24.372,0,
24.379,0,
24.387,0,
24.394,0,
24.401,0,
24.408,0,
24.415,0,
24.422,0,
24.429,0,
24.437,0,
24.444,0,
24.451,0,
24.458,0,
24.465,0,
24.472,0,
24.479,0,
24.487,0,
24.494,0,
24.501,0,
24.508,0,
24.515,0,
24.522,0,
24.529,0,
24.537,0,
24.544,0,
24.551,0,
24.558,0,
24.565,0,
24.572,0,
24.579,0,
24.587,0,
24.594,0,
24.601,0,
24.608,0,
24.615,0,
24.622,0,
24.629,0,
24.637,0,
24.644,0,
24.651,0,
24.658,0,
24.665,0,
24.672,0,
24.679,0,
24.687,0,
24.694,0,
24.701,0,
24.708,0,
24.715,0,
24.722,0,
24.729,0,
24.737,0,
24.744,0,
24.751,0,
24.758,0,
24.765,0,
24.772,0,
24.779,0,
24.787,0,
24.794,0,
24.801,0,
24.808,0,
24.815,0,
24.822,0,
24.829,0,
24.837,0,
24.844,0,
24.851,0,
24.858,0,
24.865,0,
24.872,0,
24.879,0,
24.887,0,
24.894,0,
24.901,0,
24.908,0,
24.915,0,
24.922,0,
24.929,0,
24.937,0,
24.944,0,
24.951,0,
24.958,0,
24.965,0,
24.972,0,
24.979,0,
24.987,0,
24.994,0,
25.001,0,
25.008,0,
25.015,0,
25.022,0,
25.029,0,
25.037,0,
25.044,0,
25.051,0,
25.058,0,
25.065,0,
25.072,0,
25.079,0,
25.087,0,
25.094,0,
25.101,0,
25.108,0,
25.115,0,
25.122,0,
25.129,0,
25.137,0,
25.144,0,
25.151,0,
25.158,0,
25.165,0,
25.172,0,
25.179,0,
25.187,0,
25.194,0,
25.201,0,
25.208,0,
25.215,0,
25.222,0,
25.229,0,
25.237,0,
25.244,0,
25.251,0,
25.258,0,
25.265,0,
25.272,0,
25.279,0,
25.287,0,
25.294,0,
25.301,0,
25.308,0,
25.315,0,
25.322,0,
25.329,0,
25.337,0,
25.344,0,
25.351,0,
25.358,0,
25.365,0,
25.372,0,
25.379,0,
25.387,0,
25.394,0,
25.401,0,
25.408,0,
25.415,0,
25.422,0,
25.429,0,
25.437,0,
25.444,0,
25.451,0,
25.458,0,
25.465,0,
25.472,0,
25.479,0,
25.487,0,
25.494,0,
25.501,0,
25.508,0,
25.515,0,
25.522,0,
25.529,0,
25.537,0,
25.544,0,
25.551,0,
25.558,0,
25.565,0,
25.572,0,
25.579,0,
25.587,0,
25.594,0,
25.601,0,
25.608,0,
25.615,0,
25.622,0,
25.629,0,
25.637,0,
25.644,0,
25.651,0,
25.658,0,
25.665,0,
25.672,0,
25.679,0,
25.687,0,
25.694,0,
25.701,0,
25.708,0,
25.715,0,
25.722,0,
25.729,0,
25.737,0,
25.744,0,
25.751,0,
25.758,0,
25.765,0,
25.772,0,
25.779,0,
25.787,0,
25.794,0,
25.801,0,
25.808,0,
25.815,0,
25.822,0,
25.829,0,
25.837,0,
25.844,0,
25.851,0,
25.858,0,
25.865,0,
25.872,0,
25.879,0,
25.887,0,
25.894,0,
25.901,0,
25.908,0,
25.915,0,
25.922,0,
25.929,0,
25.937,0,
25.944,0,
25.951,0,
25.958,0,
25.965,0,
25.972,0,
25.979,0,
25.987,0,
25.994,0,
26.001,0,
26.008,0,
26.015,0,
26.022,0,
26.029,0,
26.037,0,
26.044,0,
26.051,0,
26.058,0,
26.065,0,
26.072,0,
26.079,0,
26.087,0,
26.094,0,
26.101,0,
26.108,0,
26.115,0,
26.122,0,
26.129,0,
26.137,0,
26.144,0,
26.151,0,
26.158,0,
26.165,0,
26.172,0,
26.179,0,
26.187,0,
26.194,0,
26.201,0,
26.208,0,
26.215,0,
26.222,0,
26.229,0,
26.237,0,
26.244,0,
26.251,0,
26.258,0,
26.265,0,
26.272,0,
26.279,0,
26.287,0,
26.294,0,
26.301,0,
26.308,0,
26.315,0,
26.322,0,
26.329,0,
26.337,0,
26.344,0,
26.351,0,
26.358,0,
26.365,0,
26.372,0,
26.379,0,
26.387,0,
26.394,0,
26.401,0,
26.408,0,
26.415,0,
26.422,0,
26.429,0,
26.437,0,
26.444,0,
26.451,0,
26.458,0,
26.465,0,
26.472,0,
26.479,0,
26.487,0,
26.494,0,
26.501,0,
26.508,0,
26.515,0,
26.522,0,
26.529,0,
26.537,0,
26.544,0,
26.551,0,
26.558,0,
26.565,0,
26.572,0,
26.579,0,
26.587,0,
26.594,0,
26.601,0,
26.608,0,
26.615,0,
26.622,0,
26.629,0,
26.637,0,
26.644,0,
26.651,0,
26.658,0,
26.665,0,
26.672,0,
26.679,0,
26.687,0,
26.694,0,
26.701,0,
26.708,0,
26.715,0,
26.722,0,
26.729,0,
26.737,0,
26.744,0,
26.751,0,
26.758,0,
26.765,0,
26.772,0,
26.779,0,
26.787,0,
26.794,0,
26.801,0,
26.808,0,
26.815,0,
26.822,0,
26.829,0,
26.837,0,
26.844,0,
26.851,0,
26.858,0,
26.865,0,
26.872,0,
26.879,0,
26.887,0,
26.894,0,
26.901,0,
26.908,0,
26.915,0,
26.922,0,
26.929,0,
26.937,0,
26.944,0,
26.951,0,
26.958,0,
26.965,0,
26.972,0,
26.979,0,
26.987,0,
26.994,0,
27.001,0,
27.008,0,
27.015,0,
27.022,0,
27.029,0,
27.037,0,
27.044,0,
27.051,0,
27.058,0,
27.065,0,
27.072,0,
27.079,0,
27.087,0,
27.094,0,
27.101,0,
27.108,0,
27.115,0,
27.122,0,
27.129,0,
27.137,0,
27.144,0,
27.151,0,
27.158,0,
27.165,0,
27.172,0,
27.179,0,
27.187,0,
27.194,0,
27.201,0,
27.208,0,
27.215,0,
27.222,0,
27.229,0,
27.237,0,
27.244,0,
27.251,0,
27.258,0,
27.265,0,
27.272,0,
27.279,0,
27.287,0,
27.294,0,
27.301,0,
27.308,0,
27.315,0,
27.322,0,
27.329,0,
27.337,0,
27.344,0,
27.351,0,
27.358,0,
27.365,0,
27.373,0,
27.379,0,
27.387,0,
27.394,0,
27.401,0,
27.408,0,
27.415,0,
27.422,0,
27.429,0,
27.437,0,
27.444,0,
27.451,0,
27.458,0,
27.465,0,
27.472,0,
27.479,0,
27.487,0,
27.494,0,
27.501,0,
27.508,0,
27.515,0,
27.522,0,
27.529,0,
27.537,0,
27.544,0,
27.551,0,
27.558,0,
27.565,0,
27.572,0,
27.579,0,
27.587,0,
27.594,0,
27.601,0,
27.608,0,
27.615,0,
27.622,0,
27.629,0,
27.637,0,
27.644,0,
27.651,0,
27.658,0,
27.665,0,
27.672,0,
27.679,0,
27.687,0,
27.694,0,
27.701,0,
27.708,0,
27.715,0,
27.722,0,
27.729,0,
27.737,0,
27.744,0,
27.751,0,
27.758,0,
27.765,0,
27.772,0,
27.779,0,
27.787,0,
27.794,0,
27.801,0,
27.808,0,
27.815,0,
27.822,0,
27.829,0,
27.837,0,
27.844,0,
27.851,0,
27.858,0,
27.865,0,
27.872,0,
27.879,0,
27.887,0,
27.894,0,
27.901,0,
27.908,0,
27.915,0,
27.922,0,
27.929,0,
27.937,0,
27.944,0,
27.951,0,
27.958,0,
27.965,0,
27.972,0,
27.979,0,
27.987,0,
27.994,0,
28.001,0,
28.008,0,
28.015,0,
28.022,0,
28.029,0,
28.037,0,
28.044,0,
28.051,0,
28.058,0,
28.065,0,
28.072,0,
28.079,0,
28.087,0,
28.094,0,
28.101,0,
28.108,0,
28.115,0,
28.122,0,
28.129,0,
28.137,0,
28.144,0,
28.151,0,
28.158,0,
28.165,0,
28.172,0,
28.179,0,
28.187,0,
28.194,0,
28.201,0,
28.208,0,
28.215,0,
28.222,0,
28.229,0,
28.237,0,
28.244,0,
28.251,0,
28.258,0,
28.265,0,
28.272,0,
28.279,0,
28.287,0,
28.294,0,
28.301,0,
28.308,0,
28.315,0,
28.322,0,
28.329,0,
28.337,0,
28.344,0,
28.351,0,
28.358,0,
28.365,0,
28.372,0,
28.379,0,
28.387,0,
28.394,0,
28.401,0,
28.408,0,
28.415,0,
28.422,0,
28.429,0,
28.437,0,
28.444,0,
28.451,0,
28.458,0,
28.465,0,
28.472,0,
28.479,0,
28.487,0,
28.494,0,
28.501,0,
28.508,0,
28.515,0,
28.522,0,
28.529,0,
28.537,0,
28.544,0,
28.551,0,
28.558,0,
28.565,0,
28.572,0,
28.579,0,
28.587,0,
28.594,0,
28.601,0,
28.608,0,
28.615,0,
28.622,0,
28.629,0,
28.637,0,
28.644,0,
28.651,0,
28.658,0,
28.665,0,
28.672,0,
28.679,0,
28.687,0,
28.694,0,
28.701,0,
28.708,0,
28.715,0,
28.722,0,
28.729,0,
28.737,0,
28.744,0,
28.751,0,
28.758,0,
28.765,0,
28.772,0,
28.779,0,
28.787,0,
28.794,0,
28.801,0,
28.808,0,
28.815,0,
28.822,0,
28.829,0,
28.837,0,
28.844,0,
28.851,0,
28.858,0,
28.865,0,
28.872,0,
28.88,0,
28.887,0,
28.894,0,
28.901,0,
28.908,0,
28.915,0,
28.922,0,
28.929,0,
28.937,0,
28.944,0,
28.951,0,
28.958,0,
28.965,0,
28.972,0,
28.979,0,
28.987,0,
28.994,0,
29.001,0,
29.008,0,
29.015,0,
29.022,0,
29.029,0,
29.037,0,
29.044,0,
29.051,0,
29.058,0,
29.065,0,
29.072,0,
29.079,0,
29.087,0,
29.094,0,
29.101,0,
29.108,0,
29.115,0,
29.122,0,
29.129,0,
29.137,0,
29.144,0,
29.151,0,
29.158,0,
29.165,0,
29.172,0,
29.179,0,
29.187,0,
29.194,0,
29.201,0,
29.208,0,
29.215,0,
29.222,0,
29.229,0,
29.237,0,
29.244,0,
29.251,0,
29.258,0,
29.265,0,
29.272,0,
29.279,0,
29.287,0,
29.294,0,
29.301,0,
29.308,0,
29.315,0,
29.322,0,
29.329,0,
29.337,0,
29.344,0,
29.351,0,
29.358,0,
29.365,0,
29.372,0,
29.379,0,
29.387,0,
29.394,0,
29.401,0,
29.408,0,
29.415,0,
29.422,0,
29.429,0,
29.437,0,
29.444,0,
29.451,0,
29.458,0,
29.465,0,
29.472,0,
29.479,0,
29.487,0,
29.494,0,
29.501,0,
29.508,0,
29.515,0,
29.522,0,
29.529,0,
29.537,0,
29.544,0,
29.551,0,
29.558,0,
29.565,0,
29.572,0,
29.579,0,
29.587,0,
29.594,0,
29.601,0,
29.608,0,
29.615,0,
29.622,0,
29.629,0,
29.637,0,
29.644,0,
29.651,0,
29.658,0,
29.665,0,
29.672,0,
29.679,0,
29.687,0,
29.694,0,
29.701,0,
29.708,0,
29.715,0,
29.722,0,
29.729,0,
29.737,0,
29.744,0,
29.751,0,
29.758,0,
29.765,0,
29.772,0,
29.779,0,
29.787,0,
29.794,0,
29.801,0,
29.808,0,
29.815,0,
29.822,0,
29.829,0,
29.837,0,
29.844,0,
29.851,0,
29.858,0,
29.865,0,
29.872,0,
29.879,0,
29.887,0,
29.894,0,
29.901,0,
29.908,0,
29.915,0,
29.922,0,
29.929,0,
29.937,0,
29.944,0,
29.951,0,
29.958,0,
29.965,0,
29.972,0,
29.979,0,
29.987,0,
29.994,0,
30.001,0,
30.008,0,
30.015,0,
30.022,0,
30.029,0,
30.037,0,
30.044,0,
30.051,0,
30.058,0,
30.065,0,
30.072,0,
30.079,0,
30.087,0,
30.094,0,
30.101,0,
30.108,0,
30.115,0,
30.122,0,
30.129,0,
30.137,0,
30.144,0,
30.151,0,
30.158,0,
30.165,0,
30.172,0,
30.179,0,
30.187,0,
30.194,0,
30.201,0,
30.208,0,
30.215,0,
30.222,0,
30.23,0,
30.237,0,
30.244,0,
30.251,0,
30.258,0,
30.265,0,
30.272,0,
30.279,0,
30.287,0,
30.294,0,
30.301,0,
30.308,0,
30.315,0,
30.322,0,
30.329,0,
30.337,0,
30.344,0,
30.351,0,
30.358,0,
30.365,0,
30.372,0,
30.379,0,
30.387,0,
30.394,0,
30.401,0,
30.408,0,
30.415,0,
30.422,0,
30.429,0,
30.437,0,
30.444,0,
30.451,0,
30.458,0,
30.465,0,
30.472,0,
30.479,0,
30.487,0,
30.494,0,
30.501,0,
30.508,0,
30.515,0,
30.522,0,
30.529,0,
30.537,0,
30.544,0,
30.551,0,
30.558,0,
30.565,0,
30.572,0,
30.579,0,
30.587,0,
30.594,0,
30.601,0,
30.608,0,
30.615,0,
30.622,0,
30.629,0,
30.637,0,
30.644,0,
30.651,0,
30.658,0,
30.665,0,
30.672,0,
30.679,0,
30.687,0,
30.694,0,
30.701,0,
30.708,0,
30.715,0,
30.722,0,
30.729,0,
30.737,0,
30.744,0,
30.751,0,
30.758,0,
30.765,0,
30.772,0,
30.779,0,
30.787,0,
30.794,0,
30.801,0,
30.808,0,
30.815,0,
30.822,0,
30.829,0,
30.837,0,
30.844,0,
30.851,0,
30.858,0,
30.865,0,
30.872,0,
30.879,0,
30.887,0,
30.894,0,
30.901,0,
30.908,0,
30.915,0,
30.922,0,
30.929,0,
30.937,0,
30.944,0,
30.951,0,
30.958,0,
30.965,0,
30.972,0,
30.979,0,
30.987,0,
30.994,0,
31.001,0,
31.008,0,
31.015,0,
31.022,0,
31.029,0,
31.037,0,
31.044,0,
31.051,0,
31.058,0,
31.065,0,
31.072,0,
31.079,0,
31.087,0,
31.094,0,
31.101,0,
31.108,0,
31.115,0,
31.122,0,
31.129,0,
31.137,0,
31.144,0,
31.151,0,
31.158,0,
31.165,0,
31.172,0,
31.179,0,
31.187,0,
31.194,0,
31.201,0,
31.208,0,
31.215,0,
31.222,0,
31.229,0,
31.237,0,
31.244,0,
31.251,0,
31.258,0,
31.265,0,
31.272,0,
31.279,0,
31.287,0,
31.294,0,
31.301,0,
31.308,0,
31.315,0,
31.322,0,
31.329,0,
31.337,0,
31.344,0,
31.351,0,
31.358,0,
31.365,0,
31.372,0,
31.379,0,
31.387,0,
31.394,0,
31.401,0,
31.408,0,
31.415,0,
31.422,0,
31.429,0,
31.437,0,
31.444,0,
31.451,0,
31.458,0,
31.465,0,
31.472,0,
31.479,0,
31.487,0,
31.494,0,
31.501,0,
31.508,0,
31.515,0,
31.522,0,
31.529,0,
31.537,0,
31.544,0,
31.551,0,
31.558,0,
31.565,0,
31.572,0,
31.58,0,
31.587,0,
31.594,0,
31.601,0,
31.608,0,
31.615,0,
31.622,0,
31.629,0,
31.637,0,
31.644,0,
31.651,0,
31.658,0,
31.665,0,
31.672,0,
31.68,0,
31.687,0,
31.694,0,
31.701,0,
31.708,0,
31.715,0,
31.722,0,
31.729,0,
31.737,0,
31.744,0,
31.751,0,
31.758,0,
31.765,0,
31.772,0,
31.779,0,
31.787,0,
31.794,0,
31.801,0,
31.808,0,
31.815,0,
31.822,0,
31.829,0,
31.837,0,
31.844,0,
31.851,0,
31.858,0,
31.865,0,
31.872,0,
31.879,0,
31.887,0,
31.894,0,
31.901,0,
31.908,0,
31.915,0,
31.922,0,
31.929,0,
31.937,0,
31.944,0,
31.951,0,
31.958,0,
31.965,0,
31.972,0,
31.979,0,
31.987,0,
31.994,0,
32.001,0,
32.008,0,
32.015,0,
32.022,0,
32.029,0,
32.037,0,
32.044,0,
32.051,0,
32.058,0,
32.065,0,
32.072,0,
32.079,0,
32.087,0,
32.094,0,
32.101,0,
32.108,0,
32.115,0,
32.122,0,
32.129,0,
32.137,0,
32.144,0,
32.151,0,
32.158,0,
32.165,0,
32.172,0,
32.179,0,
32.187,0,
32.194,0,
32.201,0,
32.208,0,
32.215,0,
32.222,0,
32.229,0,
32.237,0,
32.244,0,
32.251,0,
32.258,0,
32.265,0,
32.272,0,
32.279,0,
32.287,0,
32.294,0,
32.301,0,
32.308,0,
32.315,0,
32.322,0,
32.329,0,
32.337,0,
32.344,0,
32.351,0,
32.358,0,
32.365,0,
32.372,0,
32.379,0,
32.387,0,
32.394,0,
32.401,0,
32.408,0,
32.415,0,
32.422,0,
32.429,0,
32.437,0,
32.444,0,
32.451,0,
32.458,0,
32.465,0,
32.472,0,
32.479,0,
32.487,0,
32.494,0,
32.501,0,
32.508,0,
32.515,0,
32.522,0,
32.529,0,
32.537,0,
32.544,0,
32.551,0,
32.558,0,
32.565,0,
32.572,0,
32.579,0,
32.587,0,
32.594,0,
32.601,0,
32.608,0,
32.615,0,
32.622,0,
32.629,0,
32.637,0,
32.644,0,
32.651,0,
32.658,0,
32.665,0,
32.672,0,
32.679,0,
32.687,0,
32.694,0,
32.701,0,
32.708,0,
32.715,0,
32.722,0,
32.729,0,
32.737,0,
32.744,0,
32.751,0,
32.758,0,
32.765,0,
32.772,0,
32.779,0,
32.787,0,
32.794,0,
32.801,0,
32.808,0,
32.815,0,
32.822,0,
32.829,0,
32.837,0,
32.844,0,
32.851,0,
32.858,0,
32.865,0,
32.872,0,
32.879,0,
32.887,0,
32.894,0,
32.901,0,
32.908,0,
32.915,0,
32.922,0,
32.929,0,
32.937,0,
32.944,0,
32.951,0,
32.958,0,
32.965,0,
32.972,0,
32.979,0,
32.987,0,
32.994,0,
33.001,0,
33.008,0,
33.015,0,
33.022,0,
33.029,0,
33.037,0,
33.044,0,
33.051,0,
33.058,0,
33.065,0,
33.072,0,
33.079,0,
33.087,0,
33.094,0,
33.101,0,
33.108,0,
33.115,0,
33.122,0,
33.129,0,
33.137,0,
33.144,0,
33.151,0,
33.158,0,
33.165,0,
33.172,0,
33.179,0,
33.187,0,
33.194,0,
33.201,0,
33.208,0,
33.215,0,
33.222,0,
33.229,0,
33.237,0,
33.244,0,
33.251,0,
33.258,0,
33.265,0,
33.272,0,
33.28,0,
33.287,0,
33.294,0,
33.301,0,
33.308,0,
33.315,0,
33.322,0,
33.329,0,
33.337,0,
33.344,0,
33.351,0,
33.358,0,
33.365,0,
33.372,0,
33.379,0,
33.387,0,
33.394,0,
33.401,0,
33.408,0,
33.415,0,
33.422,0,
33.429,0,
33.437,0,
33.444,0,
33.451,0,
33.458,0,
33.465,0,
33.472,0,
33.479,0,
33.487,0,
33.494,0,
33.501,0,
33.508,0,
33.515,0,
33.522,0,
33.529,0,
33.537,0,
33.544,0,
33.551,0,
33.558,0,
33.565,0,
33.572,0,
33.579,0,
33.587,0,
33.594,0,
33.601,0,
33.608,0,
33.615,0,
33.622,0,
33.629,0,
33.637,0,
33.644,0,
33.651,0,
33.658,0,
33.665,0,
33.672,0,
33.679,0,
33.687,0,
33.694,0,
33.701,0,
33.708,0,
33.715,0,
33.722,0,
33.729,0,
33.737,0,
33.744,0,
33.751,0,
33.758,0,
33.765,0,
33.772,0,
33.779,0,
33.787,0,
33.794,0,
33.801,0,
33.808,0,
33.815,0,
33.822,0,
33.829,0,
33.837,0,
33.844,0,
33.851,0,
33.858,0,
33.865,0,
33.872,0,
33.879,0,
33.887,0,
33.894,0,
33.901,0,
33.908,0,
33.915,0,
33.922,0,
33.929,0,
33.937,0,
33.944,0,
33.951,0,
33.958,0,
33.965,0,
33.972,0,
33.979,0,
33.987,0,
33.994,0,
34.001,0,
34.008,0,
34.015,0,
34.022,0,
34.029,0,
34.037,0,
34.044,0,
34.051,0,
34.058,0,
34.065,0,
34.072,0,
34.079,0,
34.087,0,
34.094,0,
34.101,0,
34.108,0,
34.115,0,
34.122,0,
34.129,0,
34.137,0,
34.144,0,
34.151,0,
34.158,0,
34.165,0,
34.172,0,
34.179,0,
34.187,0,
34.194,0,
34.201,0,
34.208,0,
34.215,0,
34.222,0,
34.229,0,
34.237,0,
34.244,0,
34.251,0,
34.258,0,
34.265,0,
34.272,0,
34.279,0,
34.287,0,
34.294,0,
34.301,0,
34.308,0,
34.315,0,
34.322,0,
34.329,0,
34.337,0,
34.344,0,
34.351,0,
34.358,0,
34.365,0,
34.372,0,
34.379,0,
34.387,0,
34.394,0,
34.401,0,
34.408,0,
34.415,0,
34.422,0,
34.429,0,
34.437,0,
34.444,0,
34.451,0,
34.458,0,
34.465,0,
34.472,0,
34.479,0,
34.487,0,
34.494,0,
34.501,0,
34.508,0,
34.515,0,
34.522,0,
34.529,0,
34.537,0,
34.544,0,
34.551,0,
34.558,0,
34.565,0,
34.572,0,
34.579,0,
34.587,0,
34.594,0,
34.601,0,
34.608,0,
34.615,0,
34.622,0,
34.629,0,
34.637,0,
34.644,0,
34.651,0,
34.658,0,
34.665,0,
34.672,0,
34.679,0,
34.687,0,
34.694,0,
34.701,0,
34.708,0,
34.715,0,
34.722,0,
34.729,0,
34.737,0,
34.744,0,
34.751,0,
34.758,0,
34.765,0,
34.772,0,
34.78,0,
34.787,0,
34.794,0,
34.801,0,
34.808,0,
34.815,0,
34.822,0,
34.829,0,
34.837,0,
34.844,0,
34.851,0,
34.858,0,
34.865,0,
34.872,0,
34.879,0,
34.887,0,
34.894,0,
34.901,0,
34.908,0,
34.915,0,
34.922,0,
34.929,0,
34.937,0,
34.944,0,
34.951,0,
34.958,0,
34.965,0,
34.972,0,
34.979,0,
34.987,0,
34.994,0,
35.001,0,
35.008,0,
35.015,0,
35.022,0,
35.029,0,
35.037,0,
35.044,0,
35.051,0,
35.058,0,
35.065,0,
35.072,0,
35.079,0,
35.087,0,
35.094,0,
35.101,0,
35.108,0,
35.115,0,
35.122,0,
35.129,0,
35.137,0,
35.144,0,
35.151,0,
35.158,0,
35.165,0,
35.172,0,
35.179,0,
35.187,0,
35.194,0,
35.201,0,
35.208,0,
35.215,0,
35.222,0,
35.229,0,
35.237,0,
35.244,0,
35.251,0,
35.258,0,
35.265,0,
35.272,0,
35.279,0,
35.287,0,
35.294,0,
35.301,0,
35.308,0,
35.315,0,
35.322,0,
35.329,0,
35.337,0,
35.344,0,
35.351,0,
35.358,0,
35.365,0,
35.372,0,
35.379,0,
35.387,0,
35.394,0,
35.401,0,
35.408,0,
35.415,0,
35.422,0,
35.43,0,
35.437,0,
35.444,0,
35.451,0,
35.458,0,
35.465,0,
35.472,0,
35.479,0,
35.487,0,
35.494,0,
35.501,0,
35.508,0,
35.515,0,
35.522,0,
35.529,0,
35.537,0,
35.544,0,
35.551,0,
35.558,0,
35.565,0,
35.572,0,
35.579,0,
35.587,0,
35.594,0,
35.601,0,
35.608,0,
35.615,0,
35.622,0,
35.629,0,
35.637,0,
35.644,0,
35.651,0,
35.658,0,
35.665,0,
35.672,0,
35.679,0,
35.687,0,
35.694,0,
35.701,0,
35.708,0,
35.715,0,
35.722,0,
35.729,0,
35.737,0,
35.744,0,
35.751,0,
35.758,0,
35.765,0,
35.772,0,
35.779,0,
35.787,0,
35.794,0,
35.801,0,
35.808,0,
35.815,0,
35.822,0,
35.829,0,
35.837,0,
35.844,0,
35.851,0,
35.858,0,
35.865,0,
35.872,0,
35.879,0,
35.887,0,
35.894,0,
35.901,0,
35.908,0,
35.915,0,
35.922,0,
35.93,0,
35.937,0,
35.944,0,
35.951,0,
35.958,0,
35.965,0,
35.972,0,
35.979,0,
35.987,0,
35.994,0,
36.001,0,
36.008,0,
36.015,0,
36.022,0,
36.029,0,
36.037,0,
36.044,0,
36.051,0,
36.058,0,
36.065,0,
36.072,0,
36.079,0,
36.087,0,
36.094,0,
36.101,0,
36.108,0,
36.115,0,
36.122,0,
36.129,0,
36.137,0,
36.144,0,
36.151,0,
36.158,0,
36.165,0,
36.172,0,
36.179,0,
36.187,0,
36.194,0,
36.201,0,
36.208,0,
36.215,0,
36.222,0,
36.229,0,
36.237,0,
36.244,0,
36.251,0,
36.258,0,
36.265,0,
36.272,0,
36.279,0,
36.287,0,
36.294,0,
36.301,0,
36.308,0,
36.315,0,
36.322,0,
36.329,0,
36.337,0,
36.344,0,
36.351,0,
36.358,0,
36.365,0,
36.372,0,
36.379,0,
36.387,0,
36.394,0,
36.401,0,
36.408,0,
36.415,0,
36.422,0,
36.429,0,
36.437,0,
36.444,0,
36.451,0,
36.458,0,
36.465,0,
36.472,0,
36.479,0,
36.487,0,
36.494,0,
36.501,0,
36.508,0,
36.515,0,
36.522,0,
36.529,0,
36.537,0,
36.544,0,
36.551,0,
36.558,0,
36.565,0,
36.572,0,
36.579,0,
36.587,0,
36.594,0,
36.601,0,
36.608,0,
36.615,0,
36.622,0,
36.629,0,
36.637,0,
36.644,0,
36.651,0,
36.658,0,
36.665,0,
36.672,0,
36.679,0,
36.687,0,
36.694,0,
36.701,0,
36.708,0,
36.715,0,
36.722,0,
36.729,0,
36.737,0,
36.744,0,
36.751,0,
36.758,0,
36.765,0,
36.772,0,
36.779,0,
36.787,0,
36.794,0,
36.801,0,
36.808,0,
36.815,0,
36.822,0,
36.829,0,
36.837,0,
36.844,0,
36.851,0,
36.858,0,
36.865,0,
36.872,0,
36.879,0,
36.887,0,
36.894,0,
36.901,0,
36.908,0,
36.915,0,
36.922,0,
36.929,0,
36.937,0,
36.944,0,
36.951,0,
36.958,0,
36.965,0,
36.972,0,
36.979,0,
36.987,0,
36.994,0,
37.001,0,
37.008,0,
37.015,0,
37.022,0,
37.029,0,
37.037,0,
37.044,0,
37.051,0,
37.058,0,
37.065,0,
37.072,0,
37.079,0,
37.087,0,
37.094,0,
37.101,0,
37.108,0,
37.115,0,
37.122,0,
37.129,0,
37.137,0,
37.144,0,
37.151,0,
37.158,0,
37.165,0,
37.172,0,
37.179,0,
37.187,0,
37.194,0,
37.201,0,
37.208,0,
37.215,0,
37.222,0,
37.229,0,
37.237,0,
37.244,0,
37.251,0,
37.258,0,
37.265,0,
37.272,0,
37.279,0,
37.287,0,
37.294,0,
37.301,0,
37.308,0,
37.315,0,
37.322,0,
37.329,0,
37.337,0,
37.344,0,
37.351,0,
37.358,0,
37.365,0,
37.372,0,
37.379,0,
37.387,0,
37.394,0,
37.401,0,
37.408,0,
37.415,0,
37.422,0,
37.43,0,
37.437,0,
37.444,0,
37.451,0,
37.458,0,
37.465,0,
37.472,0,
37.479,0,
37.487,0,
37.494,0,
37.501,0,
37.508,0,
37.515,0,
37.522,0,
37.529,0,
37.537,0,
37.544,0,
37.551,0,
37.558,0,
37.565,0,
37.572,0,
37.579,0,
37.587,0,
37.594,0,
37.601,0,
37.608,0,
37.615,0,
37.622,0,
37.63,0,
37.637,0,
37.644,0,
37.651,0,
37.658,0,
37.665,0,
37.672,0,
37.679,0,
37.687,0,
37.694,0,
37.701,0,
37.708,0,
37.715,0,
37.722,0,
37.729,0,
37.737,0,
37.744,0,
37.751,0,
37.758,0,
37.765,0,
37.772,0,
37.779,0,
37.787,0,
37.794,0,
37.801,0,
37.808,0,
37.815,0,
37.822,0,
37.829,0,
37.837,0,
37.844,0,
37.851,0,
37.858,0,
37.865,0,
37.872,0,
37.879,0,
37.887,0,
37.894,0,
37.901,0,
37.908,0,
37.915,0,
37.922,0,
37.929,0,
37.937,0,
37.944,0,
37.951,0,
37.958,0,
37.965,0,
37.972,0,
37.979,0,
37.987,0,
37.994,0,
38.001,0,
38.008,0,
38.015,0,
38.022,0,
38.029,0,
38.037,0,
38.044,0,
38.051,0,
38.058,0,
38.065,0,
38.072,0,
38.079,0,
38.087,0,
38.094,0,
38.101,0,
38.108,0,
38.115,0,
38.122,0,
38.129,0,
38.137,0,
38.144,0,
38.151,0,
38.158,0,
38.165,0,
38.172,0,
38.179,0,
38.187,0,
38.194,0,
38.201,0,
38.208,0,
38.215,0,
38.222,0,
38.229,0,
38.237,0,
38.244,0,
38.251,0,
38.258,0,
38.265,0,
38.272,0,
38.279,0,
38.287,0,
38.294,0,
38.301,0,
38.308,0,
38.315,0,
38.322,0,
38.329,0,
38.337,0,
38.344,0,
38.351,0,
38.358,0,
38.365,0,
38.372,0,
38.379,0,
38.387,0,
38.394,0,
38.401,0,
38.408,0,
38.415,0,
38.422,0,
38.429,0,
38.437,0,
38.444,0,
38.451,0,
38.458,0,
38.465,0,
38.472,0,
38.479,0,
38.487,0,
38.494,0,
38.501,0,
38.508,0,
38.515,0,
38.522,0,
38.529,0,
38.537,0,
38.544,0,
38.551,0,
38.558,0,
38.565,0,
38.572,0,
38.579,0,
38.587,0,
38.594,0,
38.601,0,
38.608,0,
38.615,0,
38.622,0,
38.629,0,
38.637,0,
38.644,0,
38.651,0,
38.658,0,
38.665,0,
38.672,0,
38.679,0,
38.687,0,
38.694,0,
38.701,0,
38.708,0,
38.715,0,
38.722,0,
38.729,0,
38.737,0,
38.744,0,
38.751,0,
38.758,0,
38.765,0,
38.772,0,
38.779,0,
38.787,0,
38.794,0,
38.801,0,
38.808,0,
38.815,0,
38.822,0,
38.829,0,
38.837,0,
38.844,0,
38.851,0,
38.858,0,
38.865,0,
38.872,0,
38.879,0,
38.887,0,
38.894,0,
38.901,0,
38.908,0,
38.915,0,
38.922,0,
38.929,0,
38.937,0,
38.944,0,
38.951,0,
38.958,0,
38.965,0,
38.972,0,
38.979,0,
38.987,0,
38.994,0,
39.001,0,
39.008,0,
39.015,0,
39.022,0,
39.029,0,
39.037,0,
39.044,0,
39.051,0,
39.058,0,
39.065,0,
39.072,0,
39.079,0,
39.087,0,
39.094,0,
39.101,0,
39.108,0,
39.115,0,
39.122,0,
39.129,0,
39.137,0,
39.144,0,
39.151,0,
39.158,0,
39.165,0,
39.172,0,
39.179,0,
39.187,0,
39.194,0,
39.201,0,
39.208,0,
39.215,0,
39.222,0,
39.23,0,
39.237,0,
39.244,0,
39.251,0,
39.258,0,
39.266,0,
39.272,0,
39.279,0,
39.287,0,
39.294,0,
39.301,0,
39.308,0,
39.315,0,
39.322,0,
39.33,0,
39.337,0,
39.344,0,
39.351,0,
39.358,0,
39.365,0,
39.372,0,
39.379,0,
39.387,0,
39.394,0,
39.401,0,
39.408,0,
39.415,0,
39.422,0,
39.429,0,
39.437,0,
39.444,0,
39.451,0,
39.458,0,
39.465,0,
39.472,0,
39.479,0,
39.487,0,
39.494,0,
39.501,0,
39.508,0,
39.515,0,
39.522,0,
39.529,0,
39.537,0,
39.544,0,
39.551,0,
39.558,0,
39.565,0,
39.572,0,
39.579,0,
39.587,0,
39.594,0,
39.601,0,
39.608,0,
39.615,0,
39.622,0,
39.629,0,
39.637,0,
39.644,0,
39.651,0,
39.658,0,
39.665,0,
39.672,0,
39.679,0,
39.687,0,
39.694,0,
39.701,0,
39.708,0,
39.715,0,
39.722,0,
39.73,0,
39.737,0,
39.744,0,
39.751,0,
39.758,0,
39.765,0,
39.772,0,
39.779,0,
39.787,0,
39.794,0,
39.801,0,
39.808,0,
39.815,0,
39.822,0,
39.829,0,
39.837,0,
39.844,0,
39.851,0,
39.858,0,
39.865,0,
39.872,0,
39.879,0,
39.887,0,
39.894,0,
39.901,0,
39.908,0,
39.915,0,
39.922,0,
39.929,0,
39.937,0,
39.944,0,
39.951,0,
39.958,0,
39.965,0,
39.972,0,
39.979,0,
39.987,0,
39.994,0,
40.001,0,
40.008,0,
40.015,0,
40.022,0,
40.029,0,
40.037,0,
40.044,0,
40.051,0,
40.058,0,
40.065,0,
40.072,0,
40.079,0,
40.087,0,
40.094,0,
40.101,0,
40.108,0,
40.115,0,
40.122,0,
40.129,0,
40.137,0,
40.144,0,
40.151,0,
40.158,0,
40.165,0,
40.172,0,
40.179,0,
40.187,0,
40.194,0,
40.201,0,
40.208,0,
40.215,0,
40.222,0,
40.229,0,
40.237,0,
40.244,0,
40.251,0,
40.258,0,
40.265,0,
40.272,0,
40.279,0,
40.287,0,
40.294,0,
40.301,0,
40.308,0,
40.315,0,
40.322,0,
40.329,0,
40.337,0,
40.344,0,
40.351,0,
40.358,0,
40.365,0,
40.372,0,
40.379,0,
40.387,0,
40.394,0,
40.401,0,
40.408,0,
40.415,0,
40.422,0,
40.429,0,
40.437,0,
40.444,0,
40.451,0,
40.458,0,
40.465,0,
40.472,0,
40.479,0,
40.487,0,
40.494,0,
40.501,0,
40.508,0,
40.515,0,
40.522,0,
40.529,0,
40.537,0,
40.544,0,
40.551,0,
40.558,0,
40.565,0,
40.572,0,
40.579,0,
40.587,0,
40.594,0,
40.601,0,
40.608,0,
40.615,0,
40.622,0,
40.629,0,
40.637,0,
40.644,0,
40.651,0,
40.658,0,
40.665,0,
40.672,0,
40.679,0,
40.687,0,
40.694,0,
40.701,0,
40.708,0,
40.715,0,
40.722,0,
40.729,0,
40.737,0,
40.744,0,
40.751,0,
40.758,0,
40.765,0,
40.772,0,
40.779,0,
40.787,0,
40.794,0,
40.801,0,
40.808,0,
40.815,0,
40.822,0,
40.829,0,
40.837,0,
40.844,0,
40.851,0,
40.858,0,
40.865,0,
40.872,0,
40.879,0,
40.887,0,
40.894,0,
40.901,0,
40.908,0,
40.915,0,
40.922,0,
40.929,0,
40.937,0,
40.944,0,
40.951,0,
40.958,0,
40.965,0,
40.972,0,
40.979,0,
40.987,0,
40.994,0,
41.001,0,
41.008,0,
41.015,0,
41.022,0,
41.029,0,
41.037,0,
41.044,0,
41.051,0,
41.058,0,
41.065,0,
41.072,0,
41.079,0,
41.087,0,
41.094,0,
41.101,0,
41.108,0,
41.115,0,
41.122,0,
41.129,0,
41.137,0,
41.144,0,
41.151,0,
41.158,0,
41.165,0,
41.172,0,
41.179,0,
41.187,0,
41.194,0,
41.201,0,
41.208,0,
41.215,0,
41.222,0,
41.229,0,
41.237,0,
41.244,0,
41.251,0,
41.258,0,
41.265,0,
41.272,0,
41.279,0,
41.287,0,
41.294,0,
41.301,0,
41.308,0,
41.315,0,
41.322,0,
41.33,0,
41.337,0,
41.344,0,
41.351,0,
41.358,0,
41.365,0,
41.372,0,
41.379,0,
41.387,0,
41.394,0,
41.401,0,
41.408,0,
41.415,0,
41.422,0,
41.429,0,
41.437,0,
41.444,0,
41.451,0,
41.458,0,
41.465,0,
41.472,0,
41.479,0,
41.487,0,
41.494,0,
41.501,0,
41.508,0,
41.515,0,
41.522,0,
41.529,0,
41.537,0,
41.544,0,
41.551,0,
41.558,0,
41.565,0,
41.572,0,
41.579,0,
41.587,0,
41.594,0,
41.601,0,
41.608,0,
41.615,0,
41.622,0,
41.629,0,
41.637,0,
41.644,0,
41.651,0,
41.658,0,
41.665,0,
41.672,0,
41.679,0,
41.687,0,
41.694,0,
41.701,0,
41.708,0,
41.715,0,
41.722,0,
41.729,0,
41.737,0,
41.744,0,
41.751,0,
41.758,0,
41.765,0,
41.772,0,
41.779,0,
41.787,0,
41.794,0,
41.801,0,
41.808,0,
41.815,0,
41.822,0,
41.829,0,
41.837,0,
41.844,0,
41.851,0,
41.858,0,
41.865,0,
41.872,0,
41.879,0,
41.887,0,
41.894,0,
41.901,0,
41.908,0,
41.915,0,
41.922,0,
41.929,0,
41.937,0,
41.944,0,
41.951,0,
41.958,0,
41.965,0,
41.972,0,
41.979,0,
41.987,0,
41.994,0,
42.001,0,
42.008,0,
42.015,0,
42.022,0,
42.029,0,
42.037,0,
42.044,0,
42.051,0,
42.058,0,
42.065,0,
42.072,0,
42.079,0,
42.087,0,
42.094,0,
42.101,0,
42.108,0,
42.115,0,
42.122,0,
42.129,0,
42.137,0,
42.144,0,
42.151,0,
42.158,0,
42.165,0,
42.172,0,
42.179,0,
42.187,0,
42.194,0,
42.201,0,
42.208,0,
42.215,0,
42.222,0,
42.229,0,
42.237,0,
42.244,0,
42.251,0,
42.258,0,
42.265,0,
42.272,0,
42.279,0,
42.287,0,
42.294,0,
42.301,0,
42.308,0,
42.315,0,
42.322,0,
42.329,0,
42.337,0,
42.344,0,
42.351,0,
42.358,0,
42.365,0,
42.372,0,
42.379,0,
42.387,0,
42.394,0,
42.401,0,
42.408,0,
42.415,0,
42.422,0,
42.43,0,
42.437,0,
42.444,0,
42.451,0,
42.458,0,
42.465,0,
42.472,0,
42.479,0,
42.487,0,
42.494,0,
42.501,0,
42.508,0,
42.515,0,
42.522,0,
42.529,0,
42.537,0,
42.544,0,
42.551,0,
42.558,0,
42.565,0,
42.572,0,
42.579,0,
42.587,0,
42.594,0,
42.601,0,
42.608,0,
42.615,0,
42.622,0,
42.629,0,
42.637,0,
42.644,0,
42.651,0,
42.658,0,
42.665,0,
42.672,0,
42.679,0,
42.687,0,
42.694,0,
42.701,0,
42.708,0,
42.715,0,
42.722,0,
42.729,0,
42.737,0,
42.744,0,
42.751,0,
42.758,0,
42.765,0,
42.772,0,
42.779,0,
42.787,0,
42.794,0,
42.801,0,
42.808,0,
42.815,0,
42.822,0,
42.829,0,
42.837,0,
42.844,0,
42.851,0,
42.858,0,
42.865,0,
42.872,0,
42.879,0,
42.887,0,
42.894,0,
42.901,0,
42.908,0,
42.915,0,
42.922,0,
42.929,0,
42.937,0,
42.944,0,
42.951,0,
42.958,0,
42.965,0,
42.972,0,
42.979,0,
42.987,0,
42.994,0,
43.001,0,
43.008,0,
43.015,0,
43.022,0,
43.029,0,
43.037,0,
43.044,0,
43.051,0,
43.058,0,
43.065,0,
43.072,0,
43.079,0,
43.087,0,
43.094,0,
43.101,0,
43.108,0,
43.115,0,
43.122,0,
43.129,0,
43.137,0,
43.144,0,
43.151,0,
43.158,0,
43.165,0,
43.172,0,
43.179,0,
43.187,0,
43.194,0,
43.201,0,
43.208,0,
43.215,0,
43.222,0,
43.229,0,
43.237,0,
43.244,0,
43.251,0,
43.258,0,
43.265,0,
43.272,0,
43.279,0,
43.287,0,
43.294,0,
43.301,0,
43.308,0,
43.315,0,
43.322,0,
43.329,0,
43.337,0,
43.344,0,
43.351,0,
43.358,0,
43.365,0,
43.372,0,
43.379,0,
43.387,0,
43.394,0,
43.401,0,
43.408,0,
43.415,0,
43.422,0,
43.429,0,
43.437,0,
43.444,0,
43.451,0,
43.458,0,
43.465,0,
43.472,0,
43.479,0,
43.487,0,
43.494,0,
43.501,0,
43.508,0,
43.515,0,
43.522,0,
43.529,0,
43.537,0,
43.544,0,
43.551,0,
43.558,0,
43.565,0,
43.572,0,
43.579,0,
43.587,0,
43.594,0,
43.601,0,
43.608,0,
43.615,0,
43.622,0,
43.63,0,
43.637,0,
43.644,0,
43.651,0,
43.658,0,
43.665,0,
43.672,0,
43.679,0,
43.687,0,
43.694,0,
43.701,0,
43.708,0,
43.715,0,
43.722,0,
43.729,0,
43.737,0,
43.744,0,
43.751,0,
43.758,0,
43.765,0,
43.772,0,
43.779,0,
43.787,0,
43.794,0,
43.801,0,
43.808,0,
43.815,0,
43.822,0,
43.829,0,
43.837,0,
43.844,0,
43.851,0,
43.858,0,
43.865,0,
43.872,0,
43.879,0,
43.887,0,
43.894,0,
43.901,0,
43.908,0,
43.915,0,
43.922,0,
43.929,0,
43.937,0,
43.944,0,
43.951,0,
43.958,0,
43.965,0,
43.972,0,
43.979,0,
43.987,0,
43.994,0,
44.001,0,
44.008,0,
44.015,0,
44.022,0,
44.03,0,
44.037,0,
44.044,0,
44.051,0,
44.058,0,
44.065,0,
44.072,0,
44.079,0,
44.087,0,
44.094,0,
44.101,0,
44.108,0,
44.115,0,
44.122,0,
44.129,0,
44.137,0,
44.144,0,
44.151,0,
44.158,0,
44.165,0,
44.172,0,
44.179,0,
44.187,0,
44.194,0,
44.201,0,
44.208,0,
44.215,0,
44.222,0,
44.229,0,
44.237,0,
44.244,0,
44.251,0,
44.258,0,
44.265,0,
44.272,0,
44.279,0,
44.287,0,
44.294,0,
44.301,0,
44.308,0,
44.315,0,
44.322,0,
44.329,0,
44.337,0,
44.344,0,
44.351,0,
44.358,0,
44.365,0,
44.372,0,
44.379,0,
44.387,0,
44.394,0,
44.401,0,
44.408,0,
44.415,0,
44.422,0,
44.429,0,
44.437,0,
44.444,0,
44.451,0,
44.458,0,
44.465,0,
44.472,0,
44.479,0,
44.487,0,
44.494,0,
44.501,0,
44.508,0,
44.515,0,
44.522,0,
44.529,0,
44.537,0,
44.544,0,
44.551,0,
44.558,0,
44.565,0,
44.572,0,
44.579,0,
44.587,0,
44.594,0,
44.601,0,
44.608,0,
44.615,0,
44.622,0,
44.629,0,
44.637,0,
44.644,0,
44.651,0,
44.658,0,
44.665,0,
44.672,0,
44.679,0,
44.687,0,
44.694,0,
44.701,0,
44.708,0,
44.715,0,
44.722,0,
44.729,0,
44.737,0,
44.744,0,
44.751,0,
44.758,0,
44.765,0,
44.772,0,
44.779,0,
44.787,0,
44.794,0,
44.801,0,
44.808,0,
44.815,0,
44.822,0,
44.829,0,
44.837,0,
44.844,0,
44.851,0,
44.858,0,
44.865,0,
44.872,0,
44.879,0,
44.887,0,
44.894,0,
44.901,0,
44.908,0,
44.915,0,
44.922,0,
44.93,0,
44.937,0,
44.944,0,
44.951,0,
44.958,0,
44.965,0,
44.972,0,
44.979,0,
44.987,0,
44.994,0,
45.001,0,
45.008,0,
45.015,0,
45.022,0,
45.029,0,
45.037,0,
45.044,0,
45.051,0,
45.058,0,
45.065,0,
45.072,0,
45.079,0,
45.087,0,
45.096,0,
45.101,0,
45.108,0,
45.115,0,
45.122,0,
45.129,0,
45.137,0,
45.144,0,
45.151,0,
45.158,0,
45.165,0,
45.172,0,
45.179,0,
45.187,0,
45.194,0,
45.201,0,
45.208,0,
45.215,0,
45.222,0,
45.229,0,
45.237,0,
45.244,0,
45.251,0,
45.258,0,
45.265,0,
45.272,0,
45.279,0,
45.287,0,
45.294,0,
45.301,0,
45.308,0,
45.315,0,
45.322,0,
45.329,0,
45.337,0,
45.344,0,
45.351,0,
45.358,0,
45.365,0,
45.372,0,
45.379,0,
45.387,0,
45.394,0,
45.401,0,
45.408,0,
45.415,0,
45.422,0,
45.429,0,
45.437,0,
45.444,0,
45.451,0,
45.458,0,
45.465,0,
45.472,0,
45.479,0,
45.487,0,
45.494,0,
45.501,0,
45.508,0,
45.515,0,
45.522,0,
45.529,0,
45.537,0,
45.544,0,
45.551,0,
45.558,0,
45.565,0,
45.572,0,
45.579,0,
45.587,0,
45.594,0,
45.601,0,
45.608,0,
45.615,0,
45.622,0,
45.63,0,
45.637,0,
45.644,0,
45.651,0,
45.658,0,
45.665,0,
45.672,0,
45.679,0,
45.687,0,
45.694,0,
45.701,0,
45.708,0,
45.715,0,
45.722,0,
45.729,0,
45.737,0,
45.744,0,
45.751,0,
45.758,0,
45.765,0,
45.772,0,
45.779,0,
45.787,0,
45.794,0,
45.801,0,
45.808,0,
45.815,0,
45.822,0,
45.829,0,
45.837,0,
45.844,0,
45.851,0,
45.858,0,
45.865,0,
45.872,0,
45.879,0,
45.887,0,
45.894,0,
45.901,0,
45.908,0,
45.915,0,
45.922,0,
45.929,0,
45.937,0,
45.944,0,
45.951,0,
45.958,0,
45.965,0,
45.972,0,
45.979,0,
45.987,0,
45.994,0,
46.001,0,
46.008,0,
46.015,0,
46.022,0,
46.029,0,
46.037,0,
46.044,0,
46.051,0,
46.058,0,
46.065,0,
46.072,0,
46.079,0,
46.087,0,
46.094,0,
46.101,0,
46.108,0,
46.115,0,
46.122,0,
46.129,0,
46.137,0,
46.144,0,
46.151,0,
46.158,0,
46.165,0,
46.172,0,
46.179,0,
46.187,0,
46.194,0,
46.201,0,
46.208,0,
46.215,0,
46.222,0,
46.23,0,
46.237,0,
46.244,0,
46.251,0,
46.258,0,
46.265,0,
46.272,0,
46.279,0,
46.287,0,
46.294,0,
46.301,0,
46.308,0,
46.315,0,
46.322,0,
46.329,0,
46.337,0,
46.344,0,
46.351,0,
46.358,0,
46.365,0,
46.372,0,
46.379,0,
46.387,0,
46.394,0,
46.401,0,
46.408,0,
46.415,0,
46.422,0,
46.429,0,
46.437,0,
46.444,0,
46.451,0,
46.458,0,
46.465,0,
46.472,0,
46.479,0,
46.487,0,
46.494,0,
46.501,0,
46.508,0,
46.515,0,
46.522,0,
46.53,0,
46.537,0,
46.544,0,
46.553,0,
46.558,0,
46.565,0,
46.572,0,
46.579,0,
46.587,0,
46.594,0,
46.601,0,
46.608,0,
46.615,0,
46.622,0,
46.629,0,
46.637,0,
46.644,0,
46.651,0,
46.658,0,
46.665,0,
46.672,0,
46.679,0,
46.687,0,
46.694,0,
46.701,0,
46.708,0,
46.715,0,
46.722,0,
46.729,0,
46.737,0,
46.744,0,
46.751,0,
46.758,0,
46.765,0,
46.772,0,
46.779,0,
46.787,0,
46.794,0,
46.801,0,
46.808,0,
46.815,0,
46.822,0,
46.829,0,
46.837,0,
46.844,0,
46.851,0,
46.858,0,
46.865,0,
46.872,0,
46.879,0,
46.887,0,
46.894,0,
46.901,0,
46.908,0,
46.915,0,
46.922,0,
46.929,0,
46.937,0,
46.944,0,
46.951,0,
46.958,0,
46.965,0,
46.972,0,
46.979,0,
46.987,0,
46.994,0,
47.001,0,
47.008,0,
47.015,0,
47.022,0,
47.029,0,
47.037,0,
47.044,0,
47.051,0,
47.058,0,
47.065,0,
47.072,0,
47.079,0,
47.087,0,
47.094,0,
47.101,0,
47.108,0,
47.115,0,
47.122,0,
47.129,0,
47.137,0,
47.144,0,
47.151,0,
47.158,0,
47.165,0,
47.172,0,
47.179,0,
47.187,0,
47.194,0,
47.201,0,
47.208,0,
47.215,0,
47.222,0,
47.229,0,
47.237,0,
47.244,0,
47.251,0,
47.258,0,
47.265,0,
47.272,0,
47.279,0,
47.287,0,
47.294,0,
47.301,0,
47.308,0,
47.315,0,
47.322,0,
47.329,0,
47.337,0,
47.344,0,
47.351,0,
47.358,0,
47.365,0,
47.372,0,
47.379,0,
47.387,0,
47.394,0,
47.401,0,
47.408,0,
47.415,0,
47.422,0,
47.429,0,
47.437,0,
47.444,0,
47.451,0,
47.458,0,
47.465,0,
47.472,0,
47.479,0,
47.487,0,
47.494,0,
47.501,0,
47.508,0,
47.515,0,
47.522,0,
47.529,0,
47.537,0,
47.544,0,
47.551,0,
47.558,0,
47.565,0,
47.572,0,
47.579,0,
47.587,0,
47.594,0,
47.601,0,
47.608,0,
47.615,0,
47.622,0,
47.629,0,
47.637,0,
47.644,0,
47.651,0,
47.658,0,
47.665,0,
47.672,0,
47.679,0,
47.687,0,
47.694,0,
47.701,0,
47.708,0,
47.715,0,
47.722,0,
47.729,0,
47.737,0,
47.744,0,
47.751,0,
47.758,0,
47.765,0,
47.772,0,
47.779,0,
47.787,0,
47.794,0,
47.801,0,
47.808,0,
47.815,0,
47.822,0,
47.829,0,
47.837,0,
47.844,0,
47.851,0,
47.858,0,
47.865,0,
47.872,0,
47.879,0,
47.887,0,
47.894,0,
47.901,0,
47.908,0,
47.915,0,
47.922,0,
47.929,0,
47.937,0,
47.944,0,
47.951,0,
47.958,0,
47.965,0,
47.972,0,
47.979,0,
47.987,0,
47.994,0,
48.001,0,
48.008,0,
48.015,0,
48.022,0,
48.029,0,
48.037,0,
48.044,0,
48.051,0,
48.058,0,
48.065,0,
48.072,0,
48.079,0,
48.087,0,
48.094,0,
48.101,0,
48.108,0,
48.115,0,
48.122,0,
48.129,0,
48.137,0,
48.144,0,
48.151,0,
48.158,0,
48.165,0,
48.172,0,
48.179,0,
48.187,0,
48.194,0,
48.201,0,
48.208,0,
48.215,0,
48.222,0,
48.229,0,
48.237,0,
48.244,0,
48.251,0,
48.258,0,
48.265,0,
48.272,0,
48.279,0,
48.287,0,
48.294,0,
48.301,0,
48.308,0,
48.315,0,
48.322,0,
48.329,0,
48.337,0,
48.344,0,
48.351,0,
48.358,0,
48.365,0,
48.372,0,
48.379,0,
48.387,0,
48.394,0,
48.401,0,
48.408,0,
48.415,0,
48.422,0,
48.429,0,
48.437,0,
48.444,0,
48.451,0,
48.458,0,
48.465,0,
48.472,0,
48.479,0,
48.487,0,
48.494,0,
48.501,0,
48.508,0,
48.515,0,
48.522,0,
48.529,0,
48.537,0,
48.544,0,
48.551,0,
48.558,0,
48.565,0,
48.572,0,
48.579,0,
48.587,0,
48.594,0,
48.601,0,
48.608,0,
48.615,0,
48.622,0,
48.629,0,
48.637,0,
48.644,0,
48.651,0,
48.658,0,
48.665,0,
48.672,0,
48.679,0,
48.687,0,
48.694,0,
48.701,0,
48.708,0,
48.715,0,
48.722,0,
48.729,0,
48.737,0,
48.744,0,
48.751,0,
48.758,0,
48.765,0,
48.772,0,
48.779,0,
48.787,0,
48.794,0,
48.801,0,
48.808,0,
48.815,0,
48.822,0,
48.829,0,
48.837,0,
48.844,0,
48.851,0,
48.858,0,
48.865,0,
48.872,0,
48.879,0,
48.887,0,
48.894,0,
48.901,0,
48.908,0,
48.915,0,
48.922,0,
48.929,0,
48.937,0,
48.944,0,
48.951,0,
48.958,0,
48.965,0,
48.972,0,
48.979,0,
48.987,0,
48.994,0,
49.001,0,
49.008,0,
49.015,0,
49.022,0,
49.029,0,
49.037,0,
49.044,0,
49.051,0,
49.058,0,
49.065,0,
49.072,0,
49.079,0,
49.087,0,
49.094,0,
49.101,0,
49.108,0,
49.115,0,
49.122,0,
49.129,0,
49.137,0,
49.144,0,
49.151,0,
49.158,0,
49.165,0,
49.172,0,
49.179,0,
49.187,0,
49.194,0,
49.201,0,
49.208,0,
49.215,0,
49.222,0,
49.229,0,
49.237,0,
49.244,0,
49.251,0,
49.258,0,
49.265,0,
49.272,0,
49.279,0,
49.287,0,
49.294,0,
49.301,0,
49.308,0,
49.315,0,
49.322,0,
49.329,0,
49.337,0,
49.344,0,
49.351,0,
49.358,0,
49.365,0,
49.372,0,
49.379,0,
49.387,0,
49.394,0,
49.401,0,
49.408,0,
49.415,0,
49.422,0,
49.429,0,
49.437,0,
49.444,0,
49.451,0,
49.458,0,
49.465,0,
49.472,0,
49.479,0,
49.487,0,
49.494,0,
49.501,0,
49.508,0,
49.515,0,
49.522,0,
49.529,0,
49.537,0,
49.544,0,
49.551,0,
49.558,0,
49.565,0,
49.572,0,
49.579,0,
49.587,0,
49.594,0,
49.601,0,
49.608,0,
49.615,0,
49.622,0,
49.629,0,
49.637,0,
49.644,0,
49.651,0,
49.658,0,
49.665,0,
49.672,0,
49.679,0,
49.687,0,
49.694,0,
49.701,0,
49.708,0,
49.715,0,
49.722,0,
49.729,0,
49.737,0,
49.744,0,
49.751,0,
49.758,0,
49.765,0,
49.772,0,
49.779,0,
49.787,0,
49.794,0,
49.801,0,
49.808,0,
49.815,0,
49.822,0,
49.829,0,
49.837,0,
49.844,0,
49.851,0,
49.858,0,
49.865,0,
49.872,0,
49.879,0,
49.887,0,
49.894,0,
49.901,0,
49.908,0,
49.915,0,
49.922,0,
49.929,0,
49.937,0,
49.944,0,
49.951,0,
49.958,0,
49.965,0,
49.972,0,
49.979,0,
49.987,0,
49.994,0,
50.001,0,
50.008,0,
50.015,0,
50.022,0,
50.029,0,
50.037,0,
50.044,0,
50.051,0,
50.058,0,
50.065,0,
50.072,0,
50.079,0,
50.087,0,
50.094,0,
50.101,0,
50.108,0,
50.115,0,
50.122,0,
50.129,0,
50.137,0,
50.144,0,
50.151,0,
50.158,0,
50.165,0,
50.172,0,
50.179,0,
50.187,0,
50.194,0,
50.201,0,
50.208,0,
50.215,0,
50.222,0,
50.229,0,
50.237,0,
50.244,0,
50.251,0,
50.258,0,
50.265,0,
50.272,0,
50.279,0,
50.287,0,
50.294,18,
50.301,10,
50.308,0,
50.315,0,
50.322,0,
50.329,0,
50.337,0,
50.344,0,
50.351,0,
50.358,0,
50.365,0,
50.372,0,
50.379,0,
50.387,0,
50.394,0,
50.401,0,
50.408,0,
50.415,0,
50.422,0,
50.429,0,
50.437,0,
50.444,0,
50.451,0,
50.458,0,
50.465,0,
50.472,0,
50.479,0,
50.487,0,
50.494,0,
50.501,0,
50.508,0,
50.515,0,
50.522,0,
50.529,0,
50.537,0,
50.544,0,
50.551,0,
50.558,0,
50.565,0,
50.572,0,
50.579,0,
50.587,0,
50.594,0,
50.601,0,
50.608,0,
50.615,0,
50.622,0,
50.629,0,
50.637,0,
50.644,0,
50.651,0,
50.658,0,
50.665,0,
50.672,0,
50.679,0,
50.687,0,
50.694,0,
50.701,0,
50.708,0,
50.715,0,
50.723,0,
50.729,0,
50.737,0,
50.744,0,
50.751,0,
50.758,0,
50.765,0,
50.772,0,
50.779,0,
50.787,0,
50.794,0,
50.801,0,
50.808,0,
50.815,0,
50.822,0,
50.829,0,
50.837,0,
50.844,0,
50.851,0,
50.858,0,
50.865,0,
50.872,0,
50.879,0,
50.887,0,
50.894,0,
50.901,0,
50.908,0,
50.915,0,
50.922,0,
50.929,0,
50.937,0,
50.944,0,
50.951,0,
50.958,0,
50.965,0,
50.972,0,
50.979,0,
50.987,0,
50.994,0,
51.001,0,
51.008,0,
51.015,0,
51.022,0,
51.029,10,
51.037,48,
51.044,37,
51.051,8,
51.058,0,
51.065,0,
51.072,0,
51.079,0,
51.087,0,
51.094,0,
51.101,0,
51.108,0,
51.115,0,
51.122,0,
51.129,0,
51.137,0,
51.144,0,
51.151,0,
51.158,0,
51.165,0,
51.172,0,
51.18,0,
51.187,0,
51.194,0,
51.201,0,
51.208,0,
51.215,0,
51.222,0,
51.229,0,
51.237,0,
51.244,0,
51.251,0,
51.258,0,
51.265,0,
51.272,0,
51.279,0,
51.287,0,
51.294,0,
51.301,0,
51.308,0,
51.315,0,
51.322,0,
51.329,0,
51.337,0,
51.344,0,
51.351,0,
51.358,0,
51.365,0,
51.372,0,
51.379,0,
51.387,0,
51.394,0,
51.401,0,
51.408,0,
51.415,0,
51.422,0,
51.429,0,
51.437,0,
51.444,0,
51.451,0,
51.458,0,
51.465,0,
51.472,0,
51.479,0,
51.487,0,
51.494,0,
51.501,0,
51.508,0,
51.515,0,
51.522,0,
51.529,0,
51.537,0,
51.544,0,
51.551,0,
51.558,0,
51.565,0,
51.572,0,
51.579,0,
51.587,0,
51.594,0,
51.601,0,
51.608,0,
51.615,0,
51.622,0,
51.629,0,
51.637,0,
51.644,0,
51.651,0,
51.658,0,
51.665,0,
51.672,0,
51.679,0,
51.687,0,
51.694,0,
51.701,0,
51.708,0,
51.715,0,
51.722,0,
51.729,0,
51.737,0,
51.744,1,
51.751,43,
51.758,24,
51.765,0,
51.772,0,
51.779,0,
51.787,0,
51.794,0,
51.801,0,
51.808,0,
51.815,0,
51.822,0,
51.829,0,
51.837,0,
51.844,0,
51.851,0,
51.858,0,
51.865,0,
51.872,0,
51.879,0,
51.887,0,
51.894,0,
51.901,0,
51.908,0,
51.915,0,
51.922,0,
51.929,0,
51.937,0,
51.944,0,
51.951,0,
51.958,0,
51.965,0,
51.972,0,
51.979,0,
51.987,0,
51.994,0,
52.001,0,
52.008,0,
52.015,0,
52.022,0,
52.029,0,
52.037,0,
52.044,0,
52.051,0,
52.058,0,
52.065,0,
52.072,0,
52.079,0,
52.087,0,
52.094,0,
52.101,0,
52.108,0,
52.115,0,
52.122,0,
52.129,0,
52.137,0,
52.144,0,
52.151,0,
52.158,0,
52.165,0,
52.172,0,
52.179,0,
52.187,0,
52.194,0,
52.201,0,
52.208,0,
52.215,0,
52.222,0,
52.229,0,
52.237,0,
52.244,0,
52.251,0,
52.258,0,
52.265,0,
52.272,0,
52.279,0,
52.287,0,
52.294,0,
52.301,0,
52.308,0,
52.315,0,
52.322,0,
52.329,0,
52.337,0,
52.344,0,
52.351,0,
52.358,0,
52.365,0,
52.372,0,
52.379,0,
52.387,0,
52.394,0,
52.401,0,
52.408,0,
52.415,0,
52.422,0,
52.429,0,
52.437,0,
52.444,0,
52.451,21,
52.458,43,
52.465,60,
52.472,30,
52.479,0,
52.487,0,
52.494,0,
52.501,0,
52.508,0,
52.515,0,
52.522,0,
52.529,0,
52.537,0,
52.544,0,
52.551,0,
52.558,0,
52.565,0,
52.572,0,
52.579,0,
52.587,0,
52.594,0,
52.601,0,
52.608,0,
52.615,0,
52.622,0,
52.63,0,
52.637,0,
52.644,0,
52.651,0,
52.658,0,
52.665,0,
52.672,0,
52.679,0,
52.687,0,
52.694,0,
52.701,6,
52.708,0,
52.715,0,
52.722,1,
52.729,0,
52.737,0,
52.744,4,
52.751,0,
52.758,0,
52.765,0,
52.772,0,
52.779,0,
52.787,0,
52.794,0,
52.801,0,
52.808,0,
52.815,0,
52.822,0,
52.829,0,
52.837,0,
52.844,0,
52.851,0,
52.858,0,
52.865,4,
52.872,0,
52.879,0,
52.887,0,
52.894,0,
52.901,0,
52.908,0,
52.915,0,
52.923,1,
52.93,0,
52.937,0,
52.944,0,
52.951,0,
52.958,0,
52.965,0,
52.972,0,
52.979,0,
52.987,0,
52.994,0,
53.001,0,
53.008,0,
53.015,0,
53.022,0,
53.029,0,
53.037,0,
53.044,6,
53.051,0,
53.058,0,
53.065,0,
53.072,0,
53.079,0,
53.087,8,
53.094,0,
53.101,0,
53.108,0,
53.115,0,
53.122,0,
53.129,22,
53.137,48,
53.144,80,
53.151,72,
53.158,19,
53.165,4,
53.172,0,
53.179,0,
53.187,0,
53.194,0,
53.201,0,
53.208,0,
53.215,0,
53.222,0,
53.229,0,
53.237,0,
53.244,0,
53.251,0,
53.258,0,
53.265,0,
53.272,0,
53.279,0,
53.287,0,
53.294,0,
53.301,0,
53.308,0,
53.315,0,
53.322,0,
53.329,0,
53.337,0,
53.344,0,
53.351,0,
53.358,0,
53.365,0,
53.372,0,
53.379,0,
53.387,0,
53.394,0,
53.401,0,
53.408,0,
53.415,0,
53.422,0,
53.429,0,
53.437,0,
53.444,0,
53.451,0,
53.458,0,
53.465,0,
53.472,0,
53.479,0,
53.487,0,
53.494,0,
53.501,0,
53.508,0,
53.515,0,
53.522,0,
53.529,0,
53.537,0,
53.544,0,
53.551,0,
53.558,0,
53.565,0,
53.572,0,
53.579,0,
53.587,0,
53.594,0,
53.601,0,
53.608,0,
53.615,0,
53.622,0,
53.629,0,
53.637,0,
53.644,0,
53.651,0,
53.658,0,
53.665,0,
53.672,0,
53.679,0,
53.687,0,
53.694,0,
53.701,0,
53.708,0,
53.715,0,
53.722,0,
53.729,0,
53.737,0,
53.744,0,
53.751,0,
53.758,0,
53.765,0,
53.772,0,
53.78,0,
53.787,0,
53.794,0,
53.801,0,
53.808,0,
53.815,0,
53.822,0,
53.829,0,
53.837,0,
53.844,26,
53.851,52,
53.858,68,
53.865,32,
53.872,0,
53.879,0,
53.887,0,
53.894,0,
53.901,0,
53.908,0,
53.915,0,
53.922,0,
53.929,0,
53.937,0,
53.944,0,
53.951,0,
53.958,0,
53.965,0,
53.972,0,
53.979,0,
53.987,0,
53.994,0,
54.001,0,
54.008,0,
54.015,0,
54.022,0,
54.029,0,
54.037,0,
54.044,0,
54.051,0,
54.058,0,
54.065,0,
54.072,0,
54.079,0,
54.087,0,
54.094,0,
54.101,0,
54.108,0,
54.115,0,
54.122,1,
54.129,0,
54.137,0,
54.144,0,
54.151,0,
54.158,0,
54.165,0,
54.172,0,
54.179,0,
54.187,0,
54.194,0,
54.201,0,
54.208,0,
54.215,0,
54.222,0,
54.229,0,
54.237,0,
54.244,0,
54.251,0,
54.258,0,
54.265,0,
54.272,0,
54.279,0,
54.287,0,
54.294,0,
54.301,0,
54.308,0,
54.315,0,
54.322,0,
54.329,0,
54.337,0,
54.344,0,
54.351,0,
54.358,0,
54.365,0,
54.372,0,
54.379,0,
54.387,0,
54.394,0,
54.401,0,
54.408,0,
54.415,0,
54.422,0,
54.429,0,
54.437,0,
54.444,0,
54.451,0,
54.458,0,
54.465,0,
54.472,0,
54.479,0,
54.487,0,
54.494,3,
54.501,0,
54.508,0,
54.515,0,
54.522,0,
54.529,0,
54.537,0,
54.544,0,
54.551,0,
54.558,0,
54.565,0,
54.572,28,
54.579,64,
54.587,82,
54.594,65,
54.601,24,
54.608,0,
54.615,0,
54.622,0,
54.629,0,
54.637,0,
54.644,0,
54.651,0,
54.658,0,
54.665,0,
54.672,0,
54.679,0,
54.687,0,
54.694,0,
54.701,0,
54.708,0,
54.715,0,
54.722,5,
54.729,0,
54.737,2,
54.744,0,
54.751,5,
54.758,4,
54.765,1,
54.772,8,
54.779,5,
54.787,3,
54.794,12,
54.801,10,
54.808,10,
54.815,12,
54.822,5,
54.829,15,
54.837,15,
54.844,8,
54.851,10,
54.858,14,
54.865,3,
54.872,10,
54.88,5,
54.887,0,
54.894,6,
54.901,0,
54.908,0,
54.915,0,
54.922,0,
54.93,2,
54.937,4,
54.944,0,
54.951,5,
54.958,0,
54.965,0,
54.972,4,
54.979,5,
54.987,0,
54.994,5,
55.001,0,
55.008,0,
55.015,2,
55.022,0,
55.03,4,
55.037,0,
55.044,0,
55.051,4,
55.058,0,
55.065,0,
55.072,4,
55.079,0,
55.087,2,
55.094,4,
55.101,4,
55.108,0,
55.115,5,
55.122,4,
55.129,2,
55.137,8,
55.144,1,
55.151,3,
55.158,10,
55.165,2,
55.172,10,
55.179,10,
55.187,3,
55.194,12,
55.201,10,
55.208,5,
55.215,9,
55.222,0,
55.229,0,
55.237,8,
55.244,0,
55.251,1,
55.258,4,
55.265,16,
55.272,44,
55.279,74,
55.287,88,
55.294,51,
55.301,18,
55.308,0,
55.315,0,
55.322,0,
55.329,1,
55.337,0,
55.344,0,
55.351,0,
55.358,0,
55.365,2,
55.372,7,
55.379,0,
55.387,3,
55.394,6,
55.401,0,
55.408,9,
55.415,4,
55.422,1,
55.429,10,
55.437,6,
55.444,8,
55.451,18,
55.458,10,
55.465,12,
55.472,16,
55.479,11,
55.487,15,
55.494,20,
55.501,17,
55.508,18,
55.515,22,
55.522,17,
55.529,24,
55.537,20,
55.544,21,
55.551,24,
55.558,27,
55.565,16,
55.572,16,
55.579,13,
55.587,13,
55.594,11,
55.601,3,
55.608,9,
55.615,8,
55.622,4,
55.629,14,
55.637,7,
55.644,4,
55.651,16,
55.658,8,
55.665,13,
55.672,13,
55.679,8,
55.687,5,
55.694,12,
55.701,12,
55.708,10,
55.715,16,
55.722,9,
55.729,16,
55.737,16,
55.744,9,
55.751,10,
55.758,12,
55.765,8,
55.772,13,
55.779,9,
55.787,16,
55.794,8,
55.801,10,
55.808,16,
55.815,14,
55.822,13,
55.829,21,
55.837,9,
55.844,17,
55.851,22,
55.858,11,
55.865,20,
55.872,21,
55.879,9,
55.887,20,
55.894,9,
55.901,7,
55.908,16,
55.915,10,
55.922,15,
55.929,17,
55.937,8,
55.944,13,
55.951,40,
55.958,61,
55.965,101,
55.972,92,
55.979,45,
55.987,13,
55.994,6,
56.001,2,
56.008,12,
56.015,3,
56.022,3,
56.029,20,
56.037,7,
56.044,9,
56.051,12,
56.058,10,
56.065,17,
56.072,19,
56.079,14,
56.087,18,
56.094,18,
56.101,14,
56.108,18,
56.115,14,
56.122,20,
56.13,25,
56.137,19,
56.144,23,
56.151,26,
56.158,18,
56.165,25,
56.172,25,
56.179,26,
56.187,34,
56.194,28,
56.201,24,
56.208,30,
56.215,32,
56.222,28,
56.23,37,
56.237,31,
56.244,27,
56.251,40,
56.258,28,
56.265,25,
56.272,24,
56.279,19,
56.287,18,
56.294,21,
56.301,19,
56.308,17,
56.315,14,
56.322,24,
56.329,23,
56.337,10,
56.344,23,
56.351,20,
56.358,20,
56.365,24,
56.372,20,
56.379,21,
56.387,31,
56.394,23,
56.401,23,
56.408,29,
56.415,17,
56.422,28,
56.429,30,
56.437,16,
56.444,30,
56.451,29,
56.458,18,
56.465,25,
56.472,26,
56.479,23,
56.487,32,
56.494,22,
56.501,25,
56.508,30,
56.515,24,
56.522,22,
56.529,35,
56.537,23,
56.544,33,
56.551,33,
56.558,23,
56.565,34,
56.572,32,
56.579,28,
56.587,35,
56.594,26,
56.601,23,
56.608,23,
56.615,26,
56.622,27,
56.629,30,
56.637,17,
56.644,27,
56.651,40,
56.658,55,
56.665,93,
56.672,114,
56.679,84,
56.687,57,
56.694,13,
56.701,17,
56.708,16,
56.715,18,
56.722,20,
56.729,23,
56.737,14,
56.744,19,
56.751,27,
56.758,25,
56.765,26,
56.772,25,
56.779,20,
56.787,25,
56.794,28,
56.801,21,
56.808,34,
56.815,30,
56.822,30,
56.829,26,
56.837,34,
56.844,36,
56.851,30,
56.858,36,
56.865,36,
56.872,40,
56.879,40,
56.887,44,
56.894,34,
56.901,44,
56.908,42,
56.915,42,
56.922,51,
56.929,41,
56.937,38,
56.944,46,
56.951,41,
56.958,38,
56.965,38,
56.972,34,
56.979,31,
56.987,35,
56.994,27,
57.001,32,
57.008,27,
57.015,24,
57.022,35,
57.029,29,
57.037,29,
57.044,38,
57.051,30,
57.058,30,
57.065,37,
57.072,35,
57.079,33,
57.087,38,
57.094,33,
57.101,36,
57.108,37,
57.115,35,
57.122,39,
57.129,30,
57.137,32,
57.144,37,
57.151,32,
57.158,33,
57.165,37,
57.172,32,
57.179,36,
57.187,38,
57.194,32,
57.201,36,
57.208,42,
57.215,32,
57.222,38,
57.229,37,
57.237,32,
57.244,37,
57.251,36,
57.258,35,
57.265,41,
57.272,36,
57.279,36,
57.287,44,
57.294,40,
57.301,41,
57.308,42,
57.315,40,
57.322,35,
57.329,36,
57.337,37,
57.344,40,
57.351,28,
57.358,43,
57.365,31,
57.372,29,
57.379,39,
57.387,54,
57.394,94,
57.401,129,
57.408,112,
57.415,75,
57.422,42,
57.429,27,
57.437,29,
57.444,28,
57.451,25,
57.458,30,
57.465,32,
57.472,32,
57.479,34,
57.487,32,
57.494,33,
57.501,44,
57.508,32,
57.515,42,
57.522,41,
57.529,35,
57.537,36,
57.544,45,
57.551,37,
57.558,45,
57.565,45,
57.572,33,
57.579,44,
57.587,46,
57.594,39,
57.601,50,
57.608,50,
57.615,46,
57.622,53,
57.629,49,
57.637,52,
57.644,54,
57.651,50,
57.658,55,
57.665,58,
57.672,53,
57.679,53,
57.687,54,
57.694,44,
57.701,50,
57.708,48,
57.715,43,
57.722,42,
57.729,42,
57.737,34,
57.744,48,
57.751,38,
57.758,46,
57.765,45,
57.772,42,
57.779,41,
57.787,53,
57.794,40,
57.801,48,
57.808,47,
57.815,40,
57.822,46,
57.829,45,
57.837,46,
57.844,43,
57.851,43,
57.858,52,
57.865,41,
57.872,44,
57.879,51,
57.887,45,
57.894,44,
57.901,52,
57.908,42,
57.915,46,
57.922,45,
57.929,37,
57.937,51,
57.944,46,
57.951,41,
57.958,55,
57.965,41,
57.972,41,
57.979,52,
57.987,48,
57.994,47,
58.001,52,
58.008,43,
58.015,57,
58.022,56,
58.029,47,
58.037,52,
58.044,54,
58.051,47,
58.058,54,
58.065,51,
58.072,50,
58.079,56,
58.087,45,
58.094,41,
58.101,52,
58.108,46,
58.115,44,
58.122,51,
58.129,43,
58.137,43,
58.144,51,
58.151,64,
58.158,105,
58.165,128,
58.172,119,
58.179,85,
58.187,42,
58.194,35,
58.201,45,
58.208,36,
58.215,35,
58.222,46,
58.229,42,
58.237,40,
58.244,41,
58.251,42,
58.258,50,
58.265,46,
58.272,37,
58.279,46,
58.287,49,
58.294,48,
58.301,52,
58.308,49,
58.315,49,
58.322,58,
58.329,48,
58.337,51,
58.344,57,
58.351,46,
58.358,52,
58.365,55,
58.372,57,
58.379,58,
58.387,54,
58.394,62,
58.401,68,
58.408,64,
58.415,65,
58.422,59,
58.429,64,
58.437,70,
58.444,60,
58.451,60,
58.458,61,
58.465,47,
58.472,52,
58.479,54,
58.487,44,
58.494,50,
58.501,49,
58.508,48,
58.515,51,
58.522,48,
58.529,49,
58.537,56,
58.544,51,
58.551,46,
58.558,58,
58.565,52,
58.572,54,
58.579,56,
58.587,48,
58.594,53,
58.601,56,
58.608,53,
58.615,54,
58.622,53,
58.629,50,
58.637,56,
58.644,53,
58.651,53,
58.658,58,
58.665,54,
58.672,53,
58.679,59,
58.687,52,
58.694,60,
58.701,56,
58.708,53,
58.715,51,
58.722,56,
58.729,49,
58.737,60,
58.744,52,
58.751,56,
58.758,64,
58.765,54,
58.772,54,
58.779,64,
58.787,53,
58.794,60,
58.801,64,
58.808,53,
58.815,61,
58.822,54,
58.829,50,
58.837,56,
58.844,56,
58.851,53,
58.858,59,
58.865,53,
58.872,42,
58.879,65,
58.887,82,
58.894,117,
58.901,141,
58.908,73,
58.915,50,
58.922,48,
58.929,52,
58.937,51,
58.944,44,
58.951,52,
58.958,48,
58.965,47,
58.972,52,
58.979,50,
58.987,51,
58.994,57,
59.001,49,
59.008,56,
59.015,59,
59.022,55,
59.029,65,
59.037,59,
59.044,56,
59.051,64,
59.058,55,
59.065,57,
59.072,64,
59.079,58,
59.087,61,
59.094,74,
59.101,62,
59.108,61,
59.115,73,
59.122,68,
59.13,67,
59.137,72,
59.144,69,
59.151,73,
59.158,75,
59.165,70,
59.172,72,
59.179,68,
59.187,64,
59.194,65,
59.201,61,
59.208,55,
59.215,70,
59.222,53,
59.23,58,
59.237,60,
59.244,52,
59.251,58,
59.258,58,
59.265,59,
59.272,62,
59.279,60,
59.287,58,
59.294,62,
59.301,64,
59.308,57,
59.315,69,
59.322,60,
59.329,64,
59.337,66,
59.344,59,
59.351,66,
59.358,67,
59.365,61,
59.372,61,
59.379,67,
59.387,62,
59.394,64,
59.401,62,
59.408,56,
59.415,64,
59.422,64,
59.429,55,
59.437,58,
59.444,60,
59.451,69,
59.458,56,
59.465,69,
59.472,69,
59.479,58,
59.487,68,
59.494,68,
59.501,66,
59.508,69,
59.515,67,
59.522,64,
59.529,70,
59.537,66,
59.544,64,
59.551,61,
59.558,64,
59.565,64,
59.572,67,
59.579,59,
59.587,64,
59.594,65,
59.601,64,
59.608,88,
59.615,116,
59.622,145,
59.629,150,
59.637,104,
59.644,70,
59.651,60,
59.658,51,
59.665,61,
59.672,64,
59.679,56,
59.687,57,
59.694,61,
59.701,63,
59.708,62,
59.715,64,
59.722,57,
59.729,70,
59.737,62,
59.744,64,
59.751,67,
59.758,67,
59.765,69,
59.772,72,
59.779,66,
59.787,71,
59.794,72,
59.801,66,
59.808,77,
59.815,71,
59.822,68,
59.829,82,
59.837,81,
59.844,73,
59.851,77,
59.858,81,
59.865,76,
59.872,80,
59.879,80,
59.887,78,
59.894,88,
59.901,82,
59.908,76,
59.915,82,
59.922,69,
59.929,74,
59.937,61,
59.944,67,
59.951,67,
59.958,67,
59.965,72,
59.972,61,
59.979,72,
59.987,69,
59.994,65,
60.001,66,
60.008,75,
60.015,64,
60.022,72,
60.029,73,
60.037,69,
60.044,76,
60.051,76,
60.058,67,
60.065,71,
60.072,73,
60.079,68,
60.087,76,
60.094,73,
60.101,67,
60.108,74,
60.115,67,
60.122,73,
60.129,77,
60.137,65,
60.144,74,
60.151,78,
60.158,65,
60.165,76,
60.172,79,
60.179,68,
60.187,76,
60.194,72,
60.201,73,
60.208,75,
60.215,71,
60.222,71,
60.229,77,
60.237,72,
60.244,76,
60.251,79,
60.258,70,
60.265,78,
60.272,82,
60.279,75,
60.287,82,
60.294,80,
60.301,74,
60.308,84,
60.315,79,
60.322,76,
60.329,74,
60.337,69,
60.344,73,
60.351,76,
60.358,65,
60.365,71,
60.372,76,
60.379,75,
60.387,107,
60.394,138,
60.401,166,
60.408,144,
60.415,100,
60.422,61,
60.429,72,
60.437,59,
60.444,64,
60.451,64,
60.458,64,
60.465,65,
60.472,66,
60.479,72,
60.487,77,
60.494,71,
60.501,72,
60.508,76,
60.515,70,
60.522,75,
60.529,78,
60.537,74,
60.544,82,
60.551,77,
60.558,77,
60.565,83,
60.572,77,
60.579,81,
60.587,85,
60.594,82,
60.601,85,
60.608,89,
60.615,82,
60.622,88,
60.629,94,
60.637,85,
60.644,94,
60.651,92,
60.658,90,
60.665,93,
60.672,88,
60.679,86,
60.687,91,
60.694,82,
60.701,82,
60.708,77,
60.715,76,
60.722,78,
60.729,76,
60.737,75,
60.744,80,
60.751,77,
60.758,72,
60.765,80,
60.772,78,
60.779,75,
60.787,83,
60.794,77,
60.801,72,
60.808,85,
60.815,80,
60.822,77,
60.829,82,
60.837,75,
60.844,85,
60.851,84,
60.858,76,
60.865,79,
60.872,84,
60.879,75,
60.887,81,
60.894,82,
60.901,78,
60.908,85,
60.915,80,
60.922,76,
60.929,84,
60.937,78,
60.944,82,
60.951,89,
60.958,82,
60.965,84,
60.972,81,
60.979,77,
60.987,92,
60.994,74,
61.001,83,
61.008,83,
61.015,84,
61.022,89,
61.029,84,
61.037,84,
61.044,95,
61.051,81,
61.058,86,
61.065,89,
61.072,81,
61.079,91,
61.087,88,
61.094,80,
61.101,87,
61.108,86,
61.115,81,
61.122,88,
61.129,82,
61.137,77,
61.144,85,
61.151,100,
61.158,139,
61.165,174,
61.172,160,
61.179,126,
61.187,90,
61.194,75,
61.201,82,
61.208,78,
61.215,74,
61.222,80,
61.23,80,
61.237,80,
61.244,84,
61.251,73,
61.258,80,
61.265,85,
61.272,78,
61.279,88,
61.287,89,
61.294,85,
61.301,85,
61.308,90,
61.315,84,
61.322,89,
61.329,87,
61.337,83,
61.344,90,
61.351,92,
61.358,88,
61.365,92,
61.372,89,
61.379,98,
61.387,101,
61.394,92,
61.401,101,
61.408,100,
61.415,95,
61.422,100,
61.429,102,
61.437,95,
61.444,105,
61.451,94,
61.458,96,
61.465,99,
61.472,88,
61.479,85,
61.487,90,
61.494,81,
61.501,84,
61.508,91,
61.515,84,
61.522,81,
61.529,86,
61.537,89,
61.544,87,
61.551,80,
61.558,92,
61.565,89,
61.572,84,
61.579,92,
61.587,87,
61.594,85,
61.601,96,
61.608,85,
61.615,88,
61.622,92,
61.629,90,
61.637,91,
61.644,88,
61.651,89,
61.658,89,
61.665,87,
61.672,90,
61.679,96,
61.687,85,
61.694,89,
61.701,94,
61.708,88,
61.715,87,
61.722,100,
61.729,86,
61.737,91,
61.744,92,
61.751,90,
61.758,97,
61.765,92,
61.772,86,
61.779,98,
61.787,94,
61.794,93,
61.801,99,
61.808,95,
61.815,93,
61.823,100,
61.829,94,
61.837,95,
61.844,98,
61.851,91,
61.858,98,
61.865,93,
61.872,88,
61.879,94,
61.887,92,
61.894,89,
61.901,104,
61.908,118,
61.915,149,
61.922,177,
61.929,158,
61.937,119,
61.944,89,
61.951,80,
61.958,83,
61.965,92,
61.972,83,
61.979,87,
61.987,85,
61.994,88,
62.001,89,
62.008,90,
62.015,82,
62.022,97,
62.029,88,
62.037,88,
62.044,99,
62.051,90,
62.058,90,
62.065,102,
62.072,93,
62.079,89,
62.087,93,
62.094,100,
62.101,101,
62.108,90,
62.115,108,
62.122,100,
62.129,100,
62.137,109,
62.144,103,
62.151,106,
62.158,108,
62.165,107,
62.172,110,
62.179,114,
62.187,108,
62.194,111,
62.201,102,
62.208,102,
62.215,104,
62.222,97,
62.229,95,
62.237,91,
62.244,94,
62.251,94,
62.258,96,
62.265,91,
62.272,97,
62.279,97,
62.287,94,
62.294,97,
62.301,100,
62.308,96,
62.315,99,
62.322,102,
62.329,91,
62.337,102,
62.344,98,
62.351,99,
62.358,105,
62.365,97,
62.372,101,
62.379,104,
62.387,96,
62.394,102,
62.401,99,
62.408,95,
62.415,100,
62.422,101,
62.429,96,
62.437,100,
62.444,99,
62.451,96,
62.458,102,
62.465,100,
62.472,97,
62.479,105,
62.487,95,
62.494,94,
62.501,104,
62.508,98,
62.515,102,
62.522,102,
62.529,101,
62.537,109,
62.544,105,
62.551,103,
62.558,107,
62.565,107,
62.572,99,
62.579,106,
62.587,102,
62.598,104,
62.601,104,
62.608,96,
62.615,101,
62.622,101,
62.629,96,
62.637,110,
62.644,125,
62.651,173,
62.658,187,
62.665,159,
62.672,126,
62.679,93,
62.687,92,
62.694,96,
62.701,91,
62.708,91,
62.715,97,
62.722,94,
62.729,92,
62.737,98,
62.744,97,
62.751,101,
62.758,105,
62.765,95,
62.772,102,
62.779,102,
62.787,97,
62.794,108,
62.801,102,
62.808,99,
62.815,110,
62.822,101,
62.829,108,
62.837,110,
62.844,108,
62.851,108,
62.858,115,
62.865,105,
62.872,113,
62.879,119,
62.887,109,
62.894,118,
62.901,117,
62.908,112,
62.915,117,
62.923,117,
62.929,112,
62.937,120,
62.944,115,
62.951,113,
62.958,112,
62.965,105,
62.972,107,
62.979,106,
62.987,102,
62.994,105,
63.001,102,
63.008,104,
63.015,106,
63.022,104,
63.029,100,
63.037,112,
63.044,105,
63.051,105,
63.058,109,
63.065,104,
63.072,110,
63.079,109,
63.087,107,
63.094,112,
63.101,109,
63.108,105,
63.115,107,
63.122,111,
63.129,107,
63.137,111,
63.144,106,
63.151,104,
63.158,113,
63.165,107,
63.172,104,
63.179,105,
63.187,107,
63.194,110,
63.201,102,
63.208,110,
63.215,111,
63.222,103,
63.229,112,
63.237,108,
63.244,104,
63.251,112,
63.258,110,
63.265,106,
63.272,112,
63.279,109,
63.287,111,
63.294,117,
63.301,111,
63.308,112,
63.315,117,
63.322,111,
63.329,118,
63.337,114,
63.344,107,
63.351,111,
63.358,108,
63.365,108,
63.372,112,
63.379,105,
63.387,104,
63.394,114,
63.401,128,
63.408,160,
63.415,201,
63.422,186,
63.429,151,
63.437,122,
63.444,97,
63.451,107,
63.458,98,
63.465,99,
63.472,110,
63.479,102,
63.487,105,
63.494,110,
63.501,106,
63.508,109,
63.515,104,
63.522,105,
63.53,111,
63.537,115,
63.544,105,
63.551,111,
63.558,115,
63.565,110,
63.572,117,
63.579,111,
63.587,108,
63.594,124,
63.601,114,
63.608,106,
63.615,126,
63.622,115,
63.629,118,
63.637,122,
63.644,124,
63.651,128,
63.658,130,
63.665,117,
63.672,129,
63.679,131,
63.687,123,
63.694,132,
63.701,128,
63.708,123,
63.715,122,
63.722,117,
63.729,116,
63.737,115,
63.744,111,
63.751,115,
63.758,109,
63.765,110,
63.772,119,
63.779,108,
63.787,114,
63.794,112,
63.801,110,
63.808,114,
63.815,121,
63.822,114,
63.829,115,
63.837,111,
63.844,112,
63.851,119,
63.858,111,
63.865,116,
63.872,125,
63.879,111,
63.887,120,
63.894,118,
63.901,114,
63.908,119,
63.915,118,
63.922,111,
63.929,118,
63.937,117,
63.944,115,
63.951,119,
63.958,114,
63.965,116,
63.972,123,
63.979,113,
63.987,117,
63.994,122,
64.001,119,
64.008,120,
64.015,112,
64.022,113,
64.029,120,
64.037,117,
64.044,116,
64.051,122,
64.058,120,
64.065,123,
64.072,125,
64.079,116,
64.087,128,
64.094,128,
64.101,117,
64.108,130,
64.115,124,
64.122,119,
64.129,124,
64.137,114,
64.144,116,
64.151,125,
64.158,116,
64.165,114,
64.172,125,
64.179,138,
64.187,172,
64.194,209,
64.201,192,
64.208,162,
64.215,128,
64.222,104,
64.229,112,
64.237,114,
64.244,106,
64.251,113,
64.258,112,
64.265,110,
64.272,112,
64.279,108,
64.287,118,
64.294,118,
64.301,118,
64.308,126,
64.315,112,
64.322,122,
64.329,120,
64.337,118,
64.344,123,
64.351,123,
64.358,120,
64.365,128,
64.372,129,
64.379,126,
64.387,132,
64.394,129,
64.401,125,
64.408,138,
64.415,125,
64.422,135,
64.429,141,
64.437,132,
64.444,135,
64.451,139,
64.458,136,
64.465,140,
64.472,133,
64.479,129,
64.487,135,
64.494,124,
64.501,122,
64.508,128,
64.515,120,
64.522,118,
64.529,128,
64.537,125,
64.544,119,
64.551,125,
64.558,118,
64.565,128,
64.572,123,
64.579,119,
64.587,126,
64.594,119,
64.601,119,
64.608,131,
64.619,118,
64.622,118,
64.629,128,
64.637,126,
64.644,128,
64.651,130,
64.658,120,
64.665,121,
64.672,128,
64.679,122,
64.687,125,
64.694,126,
64.701,119,
64.708,128,
64.715,124,
64.722,123,
64.729,130,
64.737,123,
64.744,122,
64.751,132,
64.758,123,
64.765,129,
64.772,128,
64.779,123,
64.787,132,
64.794,128,
64.801,129,
64.808,128,
64.815,124,
64.822,135,
64.829,132,
64.837,128,
64.844,134,
64.851,128,
64.858,129,
64.865,135,
64.872,128,
64.879,128,
64.887,130,
64.894,120,
64.901,125,
64.908,128,
64.915,121,
64.922,128,
64.929,124,
64.937,148,
64.944,184,
64.951,209,
64.958,199,
64.965,161,
64.972,123,
64.979,117,
64.987,125,
64.994,113,
65.001,117,
65.008,122,
65.015,117,
65.022,125,
65.029,124,
65.037,115,
65.044,120,
65.051,124,
65.058,125,
65.065,124,
65.072,122,
65.079,121,
65.087,130,
65.094,123,
65.101,130,
65.108,132,
65.115,126,
65.122,130,
65.129,131,
65.137,129,
65.144,136,
65.151,134,
65.158,128,
65.165,136,
65.172,140,
65.179,135,
65.187,140,
65.194,136,
65.201,141,
65.208,144,
65.215,140,
65.222,144,
65.229,146,
65.237,139,
65.244,140,
65.251,134,
65.258,128,
65.265,136,
65.272,129,
65.279,124,
65.287,134,
65.294,123,
65.301,122,
65.308,126,
65.315,123,
65.322,126,
65.329,125,
65.337,129,
65.344,134,
65.351,128,
65.358,133,
65.365,129,
65.372,124,
65.379,138,
65.387,130,
65.394,128,
65.401,133,
65.408,133,
65.415,129,
65.422,132,
65.429,128,
65.437,133,
65.444,132,
65.451,128,
65.458,128,
65.465,132,
65.472,126,
65.479,130,
65.487,134,
65.494,124,
65.501,135,
65.508,135,
65.515,126,
65.522,140,
65.529,130,
65.537,134,
65.544,136,
65.551,131,
65.558,134,
65.565,142,
65.572,132,
65.579,138,
65.587,136,
65.594,128,
65.601,132,
65.608,133,
65.615,128,
65.622,132,
65.629,123,
65.637,128,
65.644,145,
65.651,166,
65.658,201,
65.665,213,
65.672,187,
65.679,149,
65.687,126,
65.694,116,
65.701,128,
65.708,129,
65.715,122,
65.722,130,
65.729,128,
65.737,125,
65.744,130,
65.751,128,
65.758,126,
65.765,132,
65.772,125,
65.779,135,
65.787,137,
65.794,131,
65.801,133,
65.808,137,
65.815,136,
65.822,139,
65.829,136,
65.837,137,
65.844,131,
65.851,138,
65.858,140,
65.865,142,
65.872,138,
65.879,147,
65.887,140,
65.894,150,
65.901,149,
65.908,149,
65.915,151,
65.922,152,
65.929,143,
65.937,147,
65.944,149,
65.951,133,
65.958,143,
65.965,138,
65.972,137,
65.979,136,
65.987,134,
65.994,133,
66.001,140,
66.008,131,
66.015,134,
66.022,136,
66.029,133,
66.037,137,
66.044,135,
66.051,132,
66.058,136,
66.065,137,
66.072,134,
66.079,142,
66.087,137,
66.094,136,
66.101,142,
66.108,134,
66.115,134,
66.122,145,
66.129,132,
66.137,137,
66.144,142,
66.151,133,
66.158,139,
66.165,141,
66.172,134,
66.179,142,
66.187,141,
66.194,136,
66.201,144,
66.208,132,
66.215,136,
66.222,147,
66.229,139,
66.237,139,
66.244,149,
66.251,142,
66.258,148,
66.265,144,
66.272,140,
66.279,146,
66.287,145,
66.294,136,
66.301,140,
66.308,136,
66.315,135,
66.322,145,
66.329,136,
66.337,134,
66.344,148,
66.351,160,
66.358,196,
66.365,230,
66.372,210,
66.379,136,
66.387,130,
66.394,132,
66.401,132,
66.408,128,
66.415,135,
66.422,128,
66.429,133,
66.437,136,
66.444,128,
66.451,142,
66.458,139,
66.465,133,
66.472,140,
66.479,147,
66.487,134,
66.494,144,
66.501,140,
66.508,139,
66.515,143,
66.522,142,
66.529,139,
66.537,151,
66.544,141,
66.551,145,
66.558,149,
66.565,147,
66.572,148,
66.579,154,
66.587,147,
66.594,151,
66.601,157,
66.608,148,
66.615,159,
66.622,156,
66.629,149,
66.637,158,
66.644,152,
66.651,144,
66.658,150,
66.665,141,
66.673,143,
66.679,144,
66.687,135,
66.694,144,
66.701,146,
66.708,137,
66.715,143,
66.722,147,
66.729,137,
66.737,140,
66.744,142,
66.751,142,
66.758,144,
66.765,139,
66.772,141,
66.779,148,
66.787,142,
66.794,143,
66.801,150,
66.808,143,
66.815,146,
66.822,149,
66.829,144,
66.837,146,
66.844,145,
66.851,140,
66.858,148,
66.865,144,
66.872,141,
66.879,148,
66.887,149,
66.894,142,
66.901,144,
66.908,142,
66.915,151,
66.922,142,
66.929,149,
66.937,151,
66.944,145,
66.951,150,
66.958,157,
66.965,144,
66.972,151,
66.979,150,
66.987,150,
66.994,154,
67.001,152,
67.008,145,
67.015,148,
67.022,136,
67.029,151,
67.037,148,
67.044,138,
67.051,150,
67.058,145,
67.065,150,
67.072,195,
67.079,232,
67.087,225,
67.094,199,
67.101,160,
67.108,133,
67.115,138,
67.122,134,
67.129,132,
67.137,144,
67.144,137,
67.151,142,
67.158,140,
67.165,141,
67.172,144,
67.179,146,
67.187,139,
67.194,144,
67.201,146,
67.208,145,
67.215,150,
67.222,147,
67.229,147,
67.237,152,
67.244,146,
67.251,149,
67.258,151,
67.265,150,
67.272,152,
67.279,155,
67.287,153,
67.294,156,
67.301,157,
67.308,160,
67.315,157,
67.322,156,
67.329,156,
67.337,167,
67.344,165,
67.351,154,
67.358,164,
67.365,160,
67.372,163,
67.379,167,
67.387,153,
67.394,152,
67.401,155,
67.408,144,
67.415,154,
67.422,146,
67.429,156,
67.437,151,
67.444,145,
67.451,158,
67.458,149,
67.465,150,
67.472,154,
67.479,149,
67.487,155,
67.494,155,
67.501,150,
67.508,154,
67.515,151,
67.522,152,
67.529,156,
67.537,156,
67.544,148,
67.551,154,
67.558,151,
67.565,150,
67.572,156,
67.579,150,
67.587,153,
67.594,157,
67.601,154,
67.608,153,
67.615,158,
67.622,151,
67.629,161,
67.637,155,
67.644,152,
67.651,156,
67.658,156,
67.665,152,
67.672,167,
67.679,155,
67.687,156,
67.694,165,
67.701,160,
67.708,157,
67.715,156,
67.722,155,
67.729,156,
67.737,154,
67.744,152,
67.751,156,
67.758,145,
67.765,148,
67.772,168,
67.779,185,
67.787,216,
67.794,245,
67.798,225,
67.805,187,
67.812,152,
67.819,141,
67.827,150,
67.834,146,
67.841,145,
67.848,152,
67.855,152,
67.862,146,
67.869,155,
67.877,148,
67.884,148,
67.891,153,
67.898,152,
67.905,154,
67.912,159,
67.919,150,
67.927,157,
67.934,157,
67.941,154,
67.948,165,
67.955,152,
67.962,163,
67.969,162,
67.977,158,
67.984,164,
67.991,166,
67.998,167,
68.005,165,
68.012,170,
68.019,167,
68.027,170,
68.034,169,
68.041,171,
68.048,171,
68.055,167,
68.062,171,
68.069,172,
68.077,163,
68.084,167,
68.091,163,
68.098,153,
68.105,159,
68.112,155,
68.119,153,
68.127,156,
68.134,155,
68.141,154,
68.148,156,
68.155,156,
68.162,161,
68.169,162,
68.177,156,
68.184,160,
68.191,161,
68.198,154,
68.205,164,
68.212,162,
68.219,154,
68.227,166,
68.234,158,
68.241,160,
68.248,163,
68.255,156,
68.262,158,
68.269,163,
68.277,157,
68.284,164,
68.291,163,
68.298,157,
68.305,160,
68.312,164,
68.319,154,
68.327,163,
68.334,165,
68.341,157,
68.348,170,
68.355,163,
68.362,190,
68.369,227,
68.377,229,
68.384,231,
68.391,241,
68.398,237,
68.405,238,
68.412,235,
68.419,221,
68.427,222,
68.434,217,
68.441,202,
68.448,207,
68.455,205,
68.462,196,
68.469,199,
68.477,200,
68.484,263,
68.491,276,
68.498,264,
68.505,230,
68.512,183,
68.519,178,
68.527,183,
68.534,172,
68.541,181,
68.548,177,
68.555,174,
68.562,177,
68.569,176,
68.577,174,
68.584,178,
68.591,171,
68.598,171,
68.605,184,
68.612,169,
68.619,172,
68.627,185,
68.634,172,
68.641,177,
68.648,180,
68.655,166,
68.662,185,
68.669,180,
68.677,170,
68.684,184,
68.691,181,
68.698,176,
68.705,184,
68.712,174,
68.719,178,
68.727,186,
68.734,178,
68.741,182,
68.748,187,
68.755,176,
68.762,184,
68.769,185,
68.777,175,
68.784,177,
68.791,176,
68.798,172,
68.805,168,
68.812,163,
68.819,165,
68.827,173,
68.834,158,
68.841,167,
68.848,172,
68.855,157,
68.862,165,
68.869,170,
68.877,159,
68.884,168,
68.891,172,
68.898,161,
68.905,166,
68.912,165,
68.919,160,
68.927,170,
68.934,165,
68.941,163,
68.948,172,
68.955,164,
68.962,161,
68.969,175,
68.977,152,
68.984,165,
68.991,170,
68.998,163,
69.005,162,
69.012,159,
69.019,169,
69.027,160,
69.034,160,
69.041,170,
69.048,164,
69.055,164,
69.062,173,
69.069,163,
69.077,169,
69.084,170,
69.091,160,
69.098,169,
69.105,162,
69.112,154,
69.119,164,
69.127,164,
69.134,154,
69.141,164,
69.148,152,
69.155,160,
69.162,174,
69.169,199,
69.177,231,
69.184,251,
69.191,216,
69.198,184,
69.205,160,
69.212,148,
69.219,156,
69.227,152,
69.234,149,
69.241,158,
69.248,153,
69.255,153,
69.262,165,
69.269,154,
69.277,154,
69.284,161,
69.291,160,
69.298,162,
69.305,163,
69.312,158,
69.319,162,
69.327,166,
69.334,153,
69.341,164,
69.348,169,
69.355,159,
69.362,169,
69.369,162,
69.377,166,
69.384,172,
69.391,165,
69.398,172,
69.405,178,
69.412,168,
69.419,174,
69.427,178,
69.434,170,
69.441,181,
69.448,179,
69.455,170,
69.462,175,
69.469,168,
69.477,157,
69.484,172,
69.491,159,
69.498,156,
69.505,163,
69.512,159,
69.519,165,
69.527,152,
69.534,165,
69.541,171,
69.548,155,
69.555,166,
69.562,166,
69.569,159,
69.577,167,
69.584,165,
69.591,160,
69.598,169,
69.605,164,
69.612,162,
69.619,174,
69.627,163,
69.634,164,
69.641,165,
69.648,162,
69.655,168,
69.662,164,
69.669,158,
69.677,167,
69.684,167,
69.691,161,
69.698,171,
69.705,164,
69.712,163,
69.719,171,
69.727,163,
69.734,166,
69.741,171,
69.748,163,
69.755,165,
69.762,167,
69.769,164,
69.777,172,
69.784,171,
69.791,167,
69.798,171,
69.805,173,
69.812,166,
69.819,177,
69.827,172,
69.834,164,
69.841,174,
69.848,166,
69.855,168,
69.862,172,
69.869,165,
69.877,168,
69.884,168,
69.891,165,
69.898,186,
69.905,218,
69.912,246,
69.919,256,
69.927,216,
69.934,180,
69.941,163,
69.948,160,
69.955,157,
69.962,164,
69.969,156,
69.977,162,
69.984,167,
69.991,160,
69.998,162,
70.005,168,
70.012,162,
70.019,169,
70.027,166,
70.034,165,
70.041,173,
70.048,168,
70.055,173,
70.062,169,
70.069,174,
70.077,176,
70.084,170,
70.091,172,
70.098,179,
70.105,171,
70.112,180,
70.119,180,
70.127,175,
70.134,188,
70.141,183,
70.148,175,
70.155,187,
70.162,181,
70.169,185,
70.177,189,
70.184,180,
70.191,181,
70.198,187,
70.205,179,
70.212,178,
70.219,174,
70.227,168,
70.234,172,
70.241,170,
70.248,167,
70.255,172,
70.262,169,
70.269,164,
70.277,176,
70.284,174,
70.291,172,
70.298,178,
70.305,171,
70.312,174,
70.319,178,
70.327,170,
70.334,175,
70.341,180,
70.348,172,
70.355,176,
70.362,176,
70.369,174,
70.377,178,
70.384,174,
70.391,174,
70.398,179,
70.405,171,
70.412,172,
70.419,182,
70.427,173,
70.434,178,
70.441,178,
70.448,172,
70.455,178,
70.462,178,
70.469,172,
70.477,176,
70.484,176,
70.491,171,
70.498,181,
70.505,179,
70.512,174,
70.519,186,
70.527,178,
70.534,183,
70.541,185,
70.548,174,
70.555,186,
70.562,179,
70.569,172,
70.577,179,
70.584,172,
70.591,181,
70.598,179,
70.605,166,
70.612,177,
70.619,185,
70.627,215,
70.634,256,
70.641,262,
70.648,236,
70.655,201,
70.662,171,
70.669,173,
70.677,170,
70.684,167,
70.691,173,
70.698,168,
70.705,170,
70.712,176,
70.719,169,
70.727,172,
70.734,175,
70.741,171,
70.748,174,
70.755,173,
70.762,176,
70.769,178,
70.777,179,
70.784,177,
70.791,184,
70.798,186,
70.805,182,
70.812,181,
70.819,184,
70.827,184,
70.834,186,
70.841,180,
70.848,186,
70.855,192,
70.862,184,
70.869,193,
70.877,195,
70.884,191,
70.891,188,
70.898,193,
70.905,189,
70.912,192,
70.919,192,
70.927,185,
70.934,192,
70.941,181,
70.948,178,
70.955,181,
70.962,177,
70.969,174,
70.977,185,
70.984,175,
70.991,178,
70.998,178,
71.005,181,
71.012,176,
71.019,178,
71.027,173,
71.034,186,
71.041,178,
71.048,172,
71.055,185,
71.062,184,
71.069,175,
71.077,179,
71.084,179,
71.091,176,
71.098,186,
71.105,179,
71.112,179,
71.119,182,
71.127,180,
71.134,183,
71.141,175,
71.148,185,
71.155,181,
71.162,171,
71.169,185,
71.177,179,
71.184,179,
71.191,183,
71.198,177,
71.205,175,
71.212,187,
71.219,179,
71.227,182,
71.234,187,
71.241,180,
71.248,185,
71.255,192,
71.262,184,
71.269,187,
71.277,188,
71.284,185,
71.291,188,
71.298,177,
71.305,174,
71.312,189,
71.319,179,
71.327,180,
71.334,186,
71.341,177,
71.348,186,
71.355,212,
71.362,239,
71.369,271,
71.377,261,
71.384,213,
71.391,180,
71.398,168,
71.405,175,
71.412,180,
71.419,170,
71.427,177,
71.434,176,
71.441,178,
71.448,183,
71.455,182,
71.462,176,
71.469,182,
71.477,182,
71.484,176,
71.491,188,
71.498,185,
71.505,179,
71.512,191,
71.519,188,
71.527,189,
71.534,189,
71.541,180,
71.548,191,
71.555,187,
71.562,183,
71.569,194,
71.577,192,
71.584,189,
71.591,197,
71.598,198,
71.605,192,
71.612,198,
71.619,196,
71.627,193,
71.634,194,
71.641,189,
71.648,198,
71.655,194,
71.662,195,
71.669,192,
71.677,179,
71.684,186,
71.691,185,
71.698,177,
71.705,186,
71.712,184,
71.719,178,
71.727,182,
71.734,187,
71.741,184,
71.748,186,
71.755,186,
71.762,185,
71.769,190,
71.777,184,
71.784,187,
71.791,189,
71.798,183,
71.805,186,
71.812,190,
71.819,186,
71.827,184,
71.834,184,
71.841,185,
71.848,188,
71.855,187,
71.862,184,
71.869,194,
71.877,184,
71.884,186,
71.891,190,
71.898,185,
71.905,187,
71.912,185,
71.919,186,
71.927,192,
71.934,187,
71.941,183,
71.948,189,
71.955,192,
71.962,185,
71.969,188,
71.977,193,
71.984,185,
71.991,195,
71.998,183,
72.005,185,
72.012,189,
72.019,181,
72.027,184,
72.034,192,
72.041,173,
72.048,182,
72.055,188,
72.062,196,
72.069,236,
72.077,258,
72.084,268,
72.091,239,
72.098,202,
72.105,177,
72.112,181,
72.119,182,
72.127,176,
72.134,183,
72.141,177,
72.148,181,
72.155,183,
72.162,181,
72.169,177,
72.177,183,
72.184,185,
72.191,187,
72.198,188,
72.205,194,
72.212,187,
72.219,187,
72.227,192,
72.234,195,
72.241,189,
72.248,193,
72.255,192,
72.262,197,
72.269,196,
72.277,184,
72.284,201,
72.291,200,
72.298,195,
72.305,202,
72.312,197,
72.319,195,
72.327,209,
72.334,203,
72.341,203,
72.348,207,
72.355,200,
72.362,202,
72.369,197,
72.377,192,
72.384,192,
72.391,191,
72.398,184,
72.405,190,
72.412,192,
72.419,184,
72.427,193,
72.434,187,
72.441,187,
72.448,191,
